# Energy: -6.553297920728159
# J: 1
# M: 0
# Lmin: 0
# Lmax: 8
# grid size: 5000
# h: 0.006001200240048009
5 0 0 0 0 0 0 0 0 
5.006001200240048 8.694719232633785e-11 -2.564019921056853e-11 -7.687803040263782e-11 4.426072998126804e-11 4.299604458106799e-11 -4.060756254319679e-11 -1.3943707217593e-11 2.217026058775378e-11 
5.012002400480096 1.771654790517771e-10 -5.223704747055156e-11 -1.566319981296143e-10 9.015482759238951e-11 8.758309394018357e-11 -8.26883198928428e-11 -2.839934734257667e-11 4.513108839310935e-11 
5.018003600720144 2.739675612923257e-10 -8.075928564856725e-11 -2.421744005076705e-10 1.393362828615955e-10 1.353724738281652e-10 -1.2773424565411e-10 -4.388550505864873e-11 6.968352606743311e-11 
5.024004800960192 3.808192434472448e-10 -1.122199947549584e-10 -3.36551551635794e-10 1.935339291531193e-10 1.880488029010247e-10 -1.773038031894589e-10 -6.094425462397644e-11 9.666400082450775e-11 
5.03000600120024 5.014574858967166e-10 -1.477107377025851e-10 -4.43046549607352e-10 2.546088388748961e-10 2.474260684612922e-10 -2.330724427418353e-10 -8.015898314018978e-11 1.269706988800887e-10 
5.036007201440288 6.400116672383024e-10 -1.884366163277607e-10 -5.652850254540677e-10 3.246132396112242e-10 3.155052117103149e-10 -2.968844359635224e-10 -1.02172701202517e-10 1.615906777923284e-10 
5.042008401680336 8.011319269260849e-10 -2.357533467547108e-10 -7.073470122256087e-10 4.05852764512389e-10 3.945349984828394e-10 -3.70807583901226e-10 -1.277073937628654e-10 2.016284780410516e-10 
5.048009601920384 9.901283789555563e-10 -2.912074333030999e-10 -8.738882038075733e-10 5.009538136465671e-10 4.870779163664254e-10 -4.571923058230852e-10 -1.575849540667309e-10 2.483369868478389e-10 
5.054010802160432 1.213125030569074e-09 -3.565805327624471e-10 -1.070273909130032e-09 6.129378208422251e-10 5.960828578218773e-10 -5.58736631357061e-10 -1.927502497250917e-10 3.031513179644226e-10 
5.06001200240048 1.477232394679762e-09 -4.339391436211377e-10 -1.30272913806694e-09 7.453042880286473e-10 7.249664162925206e-10 -6.785586732364068e-10 -2.342968908576071e-10 3.677264996997103e-10 
5.066013202640528 1.790743043088396e-09 -5.256908265754085e-10 -1.578508473988437e-09 9.021245627583035e-10 8.77704734979501e-10 -8.202782498416865e-10 -2.834963048123674e-10 4.439798089538023e-10 
5.072014402880576 2.163354705478959e-09 -6.346482621757531e-10 -1.906089691029545e-09 1.08814849251657e-09 1.058938004097782e-09 -9.881094541194184e-10 -3.418307696729733e-10 5.341386509706141e-10 
5.078015603120624 2.606425975516338e-09 -7.64102578437626e-10 -2.295395460614215e-09 1.308926290900704e-09 1.274089901372783e-09 -1.186966127701573e-09 -4.110311194030424e-10 6.407949627184355e-10 
5.084016803360672 3.133270241584824e-09 -9.179075359920616e-10 -2.758047962685711e-09 1.570948196159857e-09 1.529504512695329e-09 -1.422582396293876e-09 -4.931199071492149e-10 7.669672123571144e-10 
5.09001800360072 3.759494119472913e-09 -1.100576341828486e-09 -3.307661775353417e-09 1.881804793235734e-09 1.832603556532162e-09 -1.701650655472047e-09 -5.904609002841105e-10 9.161711785075073e-10 
5.096019203840768 4.503387433284418e-09 -1.317393076374871e-09 -3.960181066822118e-09 2.250371208452391e-09 2.192067069000163e-09 -2.031979666350983e-09 -7.058158818069363e-10 1.092500821592568e-09 
5.102020404080816 5.386372676504806e-09 -1.574540964548735e-09 -4.734267861566398e-09 2.687018774234899e-09 2.618041089286485e-09 -2.422675730134312e-09 -8.424098485231003e-10 1.30072070616996e-09 
5.108021604320864 6.433522896638202e-09 -1.879250001933638e-09 -5.651749006182902e-09 3.203858203233433e-09 3.122376320831664e-09 -2.884350261759136e-09 -1.004005827974222e-09 1.54637159891485e-09 
5.114022804560912 7.674158094944185e-09 -2.239966765263575e-09 -6.738130427955379e-09 3.815018811175923e-09 3.718902236512794e-09 -3.429357478619564e-09 -1.194990684539613e-09 1.835891052905127e-09 
5.12002400480096 9.142531529922472e-09 -2.666549595230049e-09 -8.023188370944054e-09 4.536968890468072e-09 4.423741650692549e-09 -4.072066363999921e-09 -1.420473451797085e-09 2.176750996436801e-09 
5.126025205041008 1.087861877327736e-08 -3.170492742980618e-09 -9.541648521675316e-09 5.388882967401611e-09 5.255671402743863e-09 -4.829171560089104e-09 -1.686397914589821e-09 2.577614575229864e-09 
5.132026405281056 1.292902400569225e-08 -3.765183523690116e-09 -1.133396531183923e-08 6.393062380807485e-09 6.23653549139848e-09 -5.720048396378047e-09 -1.999671371923633e-09 3.048514752185906e-09 
5.138027605521104 1.534801987402798e-08 -4.466197025817645e-09 -1.344721522266265e-08 7.575416405674873e-09 7.391717773448497e-09 -6.767157870326436e-09 -2.368311742589775e-09 3.601057450565719e-09 
5.144028805761153 1.819873928035564e-08 -5.291633488106933e-09 -1.593611962997845e-08 8.966012018812193e-09 8.750682200969326e-09 -7.99650807324359e-09 -2.80161543119156e-09 4.24865233642038e-09 
5.150030006001201 2.155453975708434e-08 -6.262504083481084e-09 -1.886421463694888e-08 1.059970137280786e-08 1.034758952591599e-08 -9.438179300527525e-09 -3.310348655108642e-09 5.006774676290379e-09 
5.156031206241249 2.550056362364791e-08 -7.403171545615502e-09 -2.230518746078069e-08 1.251683711770972e-08 1.222200045782949e-08 -1.112692090724795e-08 -3.906965245060223e-09 5.893262078635163e-09 
5.162032406481297 3.013551994289957e-08 -8.741852846502623e-09 -2.634440128984464e-08 1.476408689593986e-08 1.441967642820918e-08 -1.310282887336869e-08 -4.605854275661099e-09 6.928650334302827e-09 
5.168033606721345 3.557371742554234e-08 -1.031119198858817e-08 -3.108063312906498e-08 1.739535964456113e-08 1.699349040316701e-08 -1.541211403382114e-08 -5.423621260167532e-09 8.136553014798273e-09 
5.174034806961393 4.194738089655236e-08 -1.214891192039264e-08 -3.662805202642702e-08 2.047285778029213e-08 2.000446160416478e-08 -1.810797201359642e-08 -6.379407058074062e-09 9.544089969413984e-09 
5.180036007201441 4.940928776860432e-08 -1.429855562777227e-08 -4.311846824560353e-08 2.40682709274206e-08 2.352292955539765e-08 -2.125156709373221e-08 -7.495249098057418e-09 1.11823703857451e-08 
5.186037207441489 5.813576519600302e-08 -1.681032760247587e-08 -5.070388744418699e-08 2.826412858839703e-08 2.762988458674499e-08 -2.49131435275017e-08 -8.796490014791762e-09 1.308703664503332e-08 
5.192038407681537 6.833009324271101e-08 -1.974204815429974e-08 -5.955940776053256e-08 3.315533106341082e-08 3.241847379472981e-08 -2.917327923446752e-08 -1.031223933930388e-08 1.529887581648823e-08 
5.198039607921585 8.022636452602364e-08 -2.316023442234853e-08 -6.988650193301028e-08 3.885088001127002e-08 3.799570351271082e-08 -3.412429833074488e-08 -1.207589447181151e-08 1.78645062955099e-08 
5.204040808161633 9.409385643177722e-08 -2.714132346462939e-08 -8.191673120333368e-08 4.547583232261152e-08 4.448436157818805e-08 -3.98718606143965e-08 -1.412572780648319e-08 2.083714780182842e-08 
5.210042008401681 1.102419781783463e-07 -3.177305447393545e-08 -9.591594282189857e-08 5.317350346160649e-08 5.202518512271611e-08 -4.653674792304912e-08 -1.650554757242255e-08 2.427748371715232e-08 
5.216043208641729 1.290258617780244e-07 -3.715602899274502e-08 -1.121890085105743e-07 6.210794913817908e-08 6.077930226201563e-08 -5.425686922434981e-08 -1.926544070760592e-08 2.825462556004001e-08 
5.222044408881777 1.508526733507799e-07 -4.340546999224117e-08 -1.310851672814526e-07 7.246675711408915e-08 7.093097894436397e-08 -6.318950839656448e-08 -2.24626068956954e-08 3.284719027030027e-08 
5.228045609121824 1.761887293341288e-07 -5.065320285262709e-08 -1.530040425944102e-07 8.446418413826487e-08 8.269070533846859e-08 -7.35138409142213e-08 -2.616229377281331e-08 3.814450190803436e-08 
5.234046809361872 2.055675109533985e-07 -5.904988364626832e-08 -1.784024109990357e-07 9.834467646512531e-08 9.629865952229162e-08 -8.543374807986669e-08 -3.04388442556627e-08 4.424793036498142e-08 
5.24004800960192 2.395986799204579e-07 -6.876750269490812e-08 -2.078018071858316e-07 1.143868161502358e-07 1.120285898863744e-07 -9.918096004520716e-08 -3.53768679569058e-08 5.127238073939487e-08 
5.246049209841968 2.78978208769502e-07 -8.000219416080674e-08 -2.417970588070605e-07 1.32907739356707e-07 1.301921616038813e-07 -1.150185616503561e-07 -4.107254974146319e-08 5.934794814122163e-08 
5.252050410082016 3.244997505710344e-07 -9.297738545309805e-08 -2.810658535595714e-07 1.542680772596255e-07 1.511438167595954e-07 -1.332448980854405e-07 -4.763510964121171e-08 6.862175387249318e-08 
5.258051610322064 3.770673850467422e-07 -1.079473234992691e-07 -3.263794508916426e-07 1.788774748209434e-07 1.752862022860556e-07 -1.541979205508308e-07 -5.518842958809667e-08 7.925998016877064e-08 
5.264052810562112 4.37709891397052e-07 -1.252010184620975e-07 -3.786146613451585e-07 2.0720074774003e-07 2.030762247412693e-07 -1.782600154665579e-07 -6.387286374934744e-08 9.145012199096427e-08 
5.27005401080216 5.075967125095507e-07 -1.450666492895625e-07 -4.38767228015474e-07 2.397647432817462e-07 2.350317961928703e-07 -2.058633643631973e-07 -7.384725065541945e-08 1.054034757220939e-07 
5.276055211042208 5.880557907009588e-07 -1.679164795842889e-07 -5.079667569464933e-07 2.771659764603399e-07 2.717393410615424e-07 -2.374958853799472e-07 -8.529114680325314e-08 1.213578860492285e-07 
5.282056411282256 6.805934718195199e-07 -1.941723366852502e-07 -5.874933565198744e-07 3.200791192291655e-07 3.138621397345343e-07 -2.737078113041593e-07 -9.84073029958043e-08 1.395807737949445e-07 
5.288057611522304 7.86916692460408e-07 -2.243117115830148e-07 -6.787961600865652e-07 3.692664269080096e-07 3.621495910997099e-07 -3.151189633124652e-07 -1.134244063444375e-07 1.603724690024939e-07 
5.294058811762352 9.089576842859495e-07 -2.588745423560014e-07 -7.83513921266746e-07 4.255881930857145e-07 4.174474828822088e-07 -3.624267840178879e-07 -1.306001126140277e-07 1.840698751710071e-07 
5.3000600120024 1.048901450056569e-06 -2.984707492340555e-07 -9.034978875501564e-07 4.900143316788437e-07 4.807093657983585e-07 -4.16415198089559e-07 -1.502243954311772e-07 2.110504921772013e-07 
5.306061212242448 1.209216288027946e-06 -3.437885951819331e-07 -1.040837175100431e-06 5.636371927191094e-07 5.530091350822489e-07 -4.779643735898797e-07 -1.726232408028514e-07 2.417368271030284e-07 
5.312062412482496 1.392687664913815e-06 -3.95603952063299e-07 -1.197886886039781e-06 6.476857267935975e-07 6.355549308946966e-07 -5.480614622644891e-07 -1.981627174041589e-07 2.766012239083331e-07 
5.318063612722544 1.602455762709251e-06 -4.547905590094191e-07 -1.377299228996815e-06 7.435411218810727e-07 7.297044774952374e-07 -6.278124023175698e-07 -2.27253455187309e-07 3.161711446367549e-07 
5.324064812962592 1.842057051370198e-06 -5.223313665888518e-07 -1.582057924369819e-06 8.527540456216046e-07 8.369819898458039e-07 -7.184548727010958e-07 -2.603555670353443e-07 3.610349366135168e-07 
5.33006601320264 2.115470267702328e-06 -5.993310677673291e-07 -1.815516197615503e-06 9.770636358299238e-07 9.590967855176546e-07 -8.213724936315725e-07 -2.979840504293965e-07 4.118481218760308e-07 
5.336067213442688 2.427167210872481e-06 -6.870299244717232e-07 -2.081438686939651e-06 1.118418392317276e-06 1.097963749385196e-06 -9.381103739091051e-07 -3.407147084111078e-07 4.693402468617974e-07 
5.342068413682736 2.782168796760453e-06 -7.86819006838418e-07 -2.384047616056718e-06 1.27899913382129e-06 1.25572580860273e-06 -1.070392111636088e-06 -3.89190631495439e-07 5.343223321510656e-07 
5.348069613922784 3.18610684695338e-06 -9.002569709428693e-07 -2.728073608208863e-06 1.46124419505471e-06 1.43477858575965e-06 -1.220138361098414e-06 -4.441292846149307e-07 6.076949638109962e-07 
5.354070814162832 3.645292123578007e-06 -1.029088509980419e-06 -3.118811544393551e-06 1.667877050564298e-06 1.637797408879183e-06 -1.389487084859753e-06 -5.06330245644711e-07 6.904570695991742e-07 
5.36007201440288 4.166789158388614e-06 -1.175264623503341e-06 -3.56218189673688e-06 1.901936564229899e-06 1.867766868043113e-06 -1.580815616504916e-06 -5.766836445568013e-07 7.83715424941433e-07 
5.366073214642928 4.758498463592009e-06 -1.340964859418444e-06 -4.064797997153e-06 2.166810075815316e-06 2.128013119863522e-06 -1.796764665923935e-06 -6.561793547695135e-07 8.886949351848541e-07 
5.372074414882976 5.429246752797871e-06 -1.528621694013459e-06 -4.634039731824151e-06 2.466269548987851e-06 2.422239152749481e-06 -2.040264405523012e-06 -7.459169907781911e-07 1.006749742122906e-06 
5.378075615123024 6.188885843222907e-06 -1.740947226307121e-06 -5.278134183587059e-06 2.804511018627805e-06 2.754563237893894e-06 -2.314562782247266e-06 -8.471167686607425e-07 1.139375204176012e-06 
5.384076815363072 7.048400954829586e-06 -1.980962374501657e-06 -6.006243776973196e-06 3.186197589023459e-06 3.129560803088616e-06 -2.623256206764153e-06 -9.611312885268164e-07 1.288220800865961e-06 
5.39007801560312 8.020029168408416e-06 -2.252028774249686e-06 -6.828562514364981e-06 3.616506248656762e-06 3.55230997881336e-06 -2.970322777543443e-06 -1.089458300402788e-06 1.455104013323876e-06 
5.396079215843169 9.117388852666942e-06 -2.557883590818282e-06 -7.756420926425102e-06 4.10117878168898e-06 4.028441078477827e-06 -3.360158203832612e-06 -1.233754517393407e-06 1.642025233494809e-06 
5.402080416083217 1.03556209201014e-05 -2.902677470026314e-06 -8.80240039554579e-06 4.646577070908287e-06 4.564190287160951e-06 -3.797614597615166e-06 -1.395850542210639e-06 1.851183755422226e-06 
5.408081616323265 1.175154282271428e-05 -3.291015866027958e-06 -9.980457547447222e-06 5.259743101749166e-06 5.166457845613424e-06 -4.288042310498491e-06 -1.577766975284118e-06 2.084994902486184e-06 
5.414082816563313 1.332381625139954e-05 -3.728003997592105e-06 -1.130605944311111e-05 5.948463991977624e-06 5.842871028588076e-06 -4.837334997048786e-06 -1.781731774637103e-06 2.346108344702372e-06 
5.420084016803361 1.509312955692217e-05 -4.219295698456994e-06 -1.279633034083095e-05 6.721342386690374e-06 6.601852228647641e-06 -5.451978091309885e-06 -2.010198939495712e-06 2.637427660136924e-06 
5.426085217043409 1.708239596572513e-05 -4.771146441589155e-06 -1.447021083614028e-05 7.587872573326689e-06 7.452692468372986e-06 -6.139100888043578e-06 -2.265868591164539e-06 2.962131194124457e-06 
5.432086417283457 1.931696872013646e-05 -5.390470831708929e-06 -1.634863022557186e-05 8.558522686358391e-06 8.405630675249707e-06 -6.906532424539845e-06 -2.551708526013128e-06 3.323694269264456e-06 
5.438087617523505 2.182487432972731e-05 -6.084904875218798e-06 -1.845469297840773e-05 9.644823386118421e-06 9.471939064330799e-06 -7.762861362591609e-06 -2.870977316437813e-06 3.725912798082939e-06 
5.444088817763553 2.463706517837043e-05 -6.862873351638577e-06 -2.081388023859094e-05 1.085946341075584e-05 1.066401498393352e-05 -8.71750007333117e-06 -3.227249036352509e-06 4.172928348751818e-06 
5.450090018003601 2.778769278972095e-05 -7.733662625759609e-06 -2.345426731654412e-05 1.221639241446227e-05 1.199547958899447e-05 -9.780753130002542e-06 -3.624439688078923e-06 4.669254712326133e-06 
5.456091218243649 3.131440311211459e-05 -8.707499254920498e-06 -2.640675816752055e-05 1.373093151879064e-05 1.348128371513461e-05 -1.096389041530966e-05 -4.066835407407722e-06 5.219806017558834e-06 
5.462092418483697 3.525865524194709e-05 -9.795634761014615e-06 -2.970533788901654e-05 1.541989201696376e-05 1.513782133382356e-05 -1.227922505064786e-05 -4.559122523042738e-06 5.829926436453316e-06 
5.468093618723745 3.966606506212884e-05 -1.101043695199517e-05 -3.338734430439304e-05 1.730170268342113e-05 1.698305097511782e-05 -1.374019635420333e-05 -5.106419545573213e-06 6.505421520285745e-06 
5.474094818963793 4.458677532883713e-05 -1.236548819267022e-05 -3.749375973285927e-05 1.939654615234599e-05 1.903662550910888e-05 -1.536145803349981e-05 -5.714311159496521e-06 7.252591201843377e-06 
5.480096019203841 5.007585379511495e-05 -1.387569103939604e-05 -4.206952407700579e-05 2.172650483940874e-05 2.132003068027805e-05 -1.715897181539099e-05 -6.388884289587081e-06 8.078264495054157e-06 
5.486097219443889 5.619372101346246e-05 -1.555738166779409e-05 -4.716387038776209e-05 2.431571689031135e-05 2.385673279022533e-05 -1.915010671264296e-05 -7.136766310025022e-06 8.989835918000489e-06 
5.492098419683937 6.300660951096638e-05 -1.742845153674124e-05 -5.283068409258568e-05 2.719054264776842e-05 2.667233592352762e-05 -2.135374412103095e-05 -7.965165461111176e-06 9.995303659492687e-06 
5.498099619923985 7.058705607922821e-05 -1.950847774551429e-05 -5.912888709544494e-05 3.037974213515141e-05 2.979474910858237e-05 -2.379038893419041e-05 -8.881913534050913e-06 1.110330950290297e-05 
5.504100820164033 7.901442896683655e-05 -2.18188625540039e-05 -6.612284797627659e-05 3.391466405999229e-05 3.325436380000096e-05 -2.648228685522147e-05 -9.895510879138463e-06 1.232318051381024e-05 
5.510102020404081 8.837549180383375e-05 -2.438298254823727e-05 -7.388281953261482e-05 3.782944684371721e-05 3.708424206121831e-05 -2.945354807415428e-05 -1.101517378666379e-05 1.366497249016293e-05 
5.516103220644129 9.876500612494896e-05 -2.72263479449488e-05 -8.248540491649634e-05 4.216123218519347e-05 4.132031581526029e-05 -3.273027746875059e-05 -1.225088428294746e-05 1.513951516512028e-05 
5.522104420884177 0.0001102863743906741 -3.037677253949118e-05 -9.20140536250352e-05 4.695039166473741e-05 4.600159751784066e-05 -3.63407114726567e-05 -1.361344237603567e-05 1.675845914347131e-05 
5.528105621124225 0.0001230523254318911 -3.386455481086277e-05 -0.0001025595886026852 5.22407668919768e-05 5.117040258991959e-05 -4.031536173955418e-05 -1.511452077671239e-05 1.853432454255223e-05 
5.534106821364273 0.0001371856442640246 -3.772267070590678e-05 -0.0001142207657066202 5.807992369520371e-05 5.687258392631987e-05 -4.468716571459511e-05 -1.676672211056269e-05 2.048055129788756e-05 
5.540108021604321 0.0001528199482298695 -4.198697863168616e-05 -0.000127104866773284 6.451942084141088e-05 6.315777877274451e-05 -4.949164420499189e-05 -1.85836386258106e-05 2.261155108237142e-05 
5.546109221844369 0.0001701005114355784 -4.669643719051394e-05 -0.0001413283275033997 7.161509376490107e-05 7.007966823534413e-05 -5.476706602009095e-05 -2.057991438951834e-05 2.494276077569566e-05 
5.552110422084417 0.0001891851394410206 -5.18933361959892e-05 -0.0001570174013540021 7.942735376801057e-05 7.769624965462863e-05 -6.055461972754022e-05 -2.277130995143583e-05 2.749069740793559e-05 
5.558111622324465 0.0002102450961530352 -5.762354151050563e-05 -0.0001743088605887384 8.802150313992866e-05 8.607012203879077e-05 -6.68985925462131e-05 -2.517476944030282e-05 3.027301448774616e-05 
5.564112822564513 0.0002334660848471967 -6.393675424493367e-05 -0.0001933507355911674 9.746806661864748e-05 9.526878471020736e-05 -7.384655636834351e-05 -2.780849004170652e-05 3.330855961152836e-05 
5.570114022804561 0.0002590492852097236 -7.088678485937504e-05 -0.0002143030934894527 0.000107843139596582 0.0001053649492728046 -8.144956087283128e-05 -3.069199378966421e-05 3.661743323523402e-05 
5.576115223044609 0.0002872124482452898 -7.853184269991856e-05 -0.0002373388570740884 0.0001192287534422055 0.0001164368649569411 -8.976233365888169e-05 -3.384620158592699e-05 4.022104847522991e-05 
5.582116423284657 0.0003181910508378325 -8.693484150004868e-05 -0.0002626446649124716 0.0001317132582780017 0.0001285686573422945 -9.884348729404869e-05 -3.72935093415776e-05 4.414219178888691e-05 
5.588117623524705 0.0003522395116791808 -9.616372136663534e-05 -0.0002904217734746898 0.0001453917235190108 0.0001418506803977975 -0.0001087557331333762 -4.105786611482959e-05 4.840508436935566e-05 
5.594118823764753 0.0003896324701935327 -0.0001062917877591373 -0.0003208870019831724 0.0001603663564361187 0.0001563798817107987 -0.0001195661017267017 -4.516485409703834e-05 5.303544407239896e-05 
5.600120024004801 0.0004306661299837029 -0.0001173980679566519 -0.0003542737205843459 0.0001767469389639102 0.0001722601807052308 -0.0001313461695893535 -4.964177027582729e-05 5.80605476762473e-05 
