# Energy: -3.279313232047181
# J: 1
# M: 0
# Lmin: 0
# Lmax: 8
# grid size: 5000
# h: 0.006001200240048009
5 0 0 0 0 0 0 0 0 
5.006001200240048 -5.491112071301448e-11 1.632959526733348e-11 4.846211875337809e-11 -2.814258415302002e-11 -2.697551431717759e-11 2.574760873824979e-11 8.665138403093556e-12 -1.400579012570984e-11 
5.012002400480096 -1.118859657730378e-10 3.326954894464502e-11 9.87342181630818e-11 -5.732508036797051e-11 -5.494605748659083e-11 5.242972461315419e-11 1.764643187660191e-11 -2.851063730914899e-11 
5.018003600720144 -1.7301438017524e-10 5.143798767709369e-11 1.526491173441432e-10 -8.860059316316142e-11 -8.491919276135175e-11 8.099278022950033e-11 2.726403607542869e-11 -4.402018805457855e-11 
5.024004800960192 -2.404825818679086e-10 7.148144333621488e-11 2.121235488890636e-10 -1.230700201152458e-10 -1.179479968900263e-10 1.124254303707154e-10 3.785241068980509e-11 -6.106239059527733e-11 
5.03000600120024 -3.166475434454339e-10 9.409670414639518e-11 2.792228168702013e-10 -1.61918681713956e-10 -1.551659675939181e-10 1.477906196979204e-10 4.977122316158856e-11 -8.020413160806668e-11 
5.036007201440288 -4.041133814733487e-10 1.20053260335937e-10 3.56227180818957e-10 -2.064539324341023e-10 -1.97822848340165e-10 1.882585036028169e-10 6.341653655216006e-11 -1.020683364359394e-10 
5.042008401680336 -5.058121891271673e-10 1.502170535707396e-10 4.457020566767508e-10 -2.581449149689912e-10 -2.47322469553724e-10 2.351411997563902e-10 7.923261565926204e-11 -1.273520128889451e-10 
5.048009601920384 -6.250916965209864e-10 1.855762253050507e-10 5.505740813856918e-10 -3.186655965227593e-10 -3.052636823681388e-10 2.89930329940021e-10 9.77246786091026e-11 -1.568457133575409e-10 
5.054010802160432 -7.658121694592937e-10 2.272695673810648e-10 6.742151089785883e-10 -3.899422383958177e-10 -3.734854710480207e-10 3.543383217313984e-10 1.194729239202752e-10 -1.914548966638331e-10 
5.06001200240048 -9.324550536834123e-10 2.766184065826147e-10 8.205362862664365e-10 -4.742064944517746e-10 -4.541173701068911e-10 4.303444750038323e-10 1.451481745119404e-10 -2.322236890074918e-10 
5.066013202640528 -1.130246033099961e-09 3.351627020350887e-10 9.94094491329067e-10 -5.740554082463373e-10 -5.496363797666449e-10 5.202468572972971e-10 1.755294996797623e-10 -2.803615719896528e-10 
5.072014402880576 -1.365295394342878e-09 4.04702199624009e-10 1.200213605691062e-09 -6.925196814274428e-10 -6.629316675320515e-10 6.267211739551111e-10 2.115242033081673e-10 -3.372735646975506e-10 
5.078015603120624 -1.644758875593611e-09 4.873435707959965e-10 1.445123330571193e-09 -8.331417170986885e-10 -7.973784638063445e-10 7.528878631103306e-10 2.541906013520704e-10 -4.045945160849383e-10 
5.084016803360672 -1.977022525731215e-09 5.855545644846064e-10 1.736118549512794e-09 -1.000065101490407e-09 -9.569227058058497e-10 9.023887922784058e-10 3.047640539040783e-10 -4.842281834506734e-10 
5.09001800360072 -2.371915512863135e-09 7.022263211468641e-10 2.081742585762535e-09 -1.198137376426551e-09 -1.146178157241413e-09 1.079475083036163e-09 3.646867671107173e-10 -5.783918429264936e-10 
5.096019203840768 -2.840955302596441e-09 8.407451380401701e-10 2.491998105707202e-09 -1.433028175172838e-09 -1.370537932498141e-09 1.289107763999747e-09 4.356419380873194e-10 -6.896672589090842e-10 
5.102020404080816 -3.397630180676857e-09 1.005075136278887e-09 2.978589883162095e-09 -1.711365047254523e-09 -1.636302584966331e-09 1.537073151362906e-09 5.195928821916251e-10 -8.210589318191599e-10 
5.108021604320864 -4.057724727536161e-09 1.199853464560424e-09 3.555204167842991e-09 -2.040889586149597e-09 -1.950827181748778e-09 1.830115082248571e-09 6.188278570362078e-10 -9.76060648071568e-10 
5.114022804560912 -4.839694570546934e-09 1.430499883715777e-09 4.237830000266838e-09 -2.430636800237301e-09 -2.322690083548295e-09 2.176086380984407e-09 7.360113820246189e-10 -1.158731473437033e-09 
5.12002400480096 -5.765097551074333e-09 1.703342812685811e-09 5.04512849071662e-09 -2.891141035274551e-09 -2.761886481822424e-09 2.584122224340464e-09 8.742429466427068e-10 -1.373782461912847e-09 
5.126025205041008 -6.859089356405454e-09 2.025764182711452e-09 5.998856838642572e-09 -3.434672169658731e-09 -3.28005011830537e-09 3.064838391236146e-09 1.037124105957177e-09 -1.626675497736284e-09 
5.132026405281056 -8.150992690982963e-09 2.406365745309556e-09 7.124354718588655e-09 -4.075506265900585e-09 -3.890707028084042e-09 3.630557738165407e-09 1.228835078570153e-09 -1.92373584929898e-09 
5.138027605521104 -9.674950207725718e-09 2.855159814144939e-09 8.451101607830659e-09 -4.830235377575894e-09 -4.609565610229633e-09 4.295568636587562e-09 1.454222091517778e-09 -2.272280191562716e-09 
5.144028805761153 -1.147067270026758e-08 3.383787794675066e-09 1.001335468856839e-08 -5.718121785469919e-09 -5.454847843487622e-09 5.076419546018722e-09 1.718896859208897e-09 -2.680762049322924e-09 
5.150030006001201 -1.358429548342075e-08 4.005770272231838e-09 1.18508781336965e-08 -6.761502575023224e-09 -6.44766703297664e-09 5.992254380012325e-09 2.029349740457253e-09 -3.158936828570793e-09 
5.156031206241249 -1.606935747589461e-08 4.736792893147602e-09 1.40097758906582e-08 -7.986251175319419e-09 -7.612458101795759e-09 7.065193855353819e-09 2.393078289997573e-09 -3.718048838586555e-09 
5.162032406481297 -1.898791926121717e-08 5.595032789111974e-09 1.654344152425673e-08 -9.42230326396057e-09 -8.977467133735471e-09 8.320768601569262e-09 2.818733109665761e-09 -4.371042964630082e-09 
5.168033606721345 -2.241183835601838e-08 6.601530867012297e-09 1.951364027898858e-08 -1.110425530895232e-08 -1.057530763506055e-08 9.788410452447491e-09 3.316283110776764e-09 -5.132803931603825e-09 
5.174034806961393 -2.642422207663408e-08 7.780615920292082e-09 2.299174028774779e-08 -1.307204497533613e-08 -1.244359181998606e-08 1.150200904811525e-08 3.897202524290476e-09 -6.020426404311357e-09 
5.180036007201441 -3.112108078390403e-08 9.16038721898802e-09 2.706011180077269e-08 -1.537172367840997e-08 -1.462564614167277e-08 1.350054164991957e-08 4.574682240277157e-09 -7.053519501417474e-09 
5.186037207441489 -3.661320692184588e-08 1.077326301011641e-08 3.181371545146954e-08 -1.805633272511416e-08 -1.717132129424156e-08 1.582878491580861e-08 5.363868324151311e-09 -8.254549659449446e-09 
5.192038407681537 -4.302830816966335e-08 1.265660321444498e-08 3.736190293013127e-08 -2.11868957591638e-08 -2.013790800760212e-08 1.853811830610854e-08 6.282130845309208e-09 -9.649226171688156e-09 
5.198039607921585 -5.051342622066952e-08 1.485341554682075e-08 4.383045601932098e-08 -2.483354162292901e-08 -2.359117115216958e-08 2.168742979380458e-08 7.349366465338832e-09 -1.126693414610463e-08 
5.204040808161633 -5.923767620988534e-08 1.741315532250238e-08 5.136389277340836e-08 -2.907677327955322e-08 -2.760651597134911e-08 2.534413564505705e-08 8.588338569004713e-09 -1.314122007810462e-08 
5.210042008401681 -6.93953456593488e-08 2.039263034921428e-08 6.012807271787943e-08 -3.400890011251743e-08 -3.227030167270108e-08 2.958532722027373e-08 1.002505908283157e-08 -1.531033571921962e-08 
5.216043208641729 -8.120939602293005e-08 2.385702355223347e-08 7.031313632084193e-08 -3.973565274747721e-08 -3.768131914076432e-08 3.449905902930801e-08 1.16892165143467e-08 -1.7817846443445e-08 
5.222044408881777 -9.493541451839019e-08 2.788104734656933e-08 8.213681766964616e-08 -4.637800153388545e-08 -4.395245119249642e-08 4.018579366204566e-08 1.361465516083537e-08 -2.071331087001691e-08 
5.228045609121824 -1.108660689625599e-07 3.255024526554053e-08 9.584817329049375e-08 -5.407420199332943e-08 -5.121253558707765e-08 4.67600207136483e-08 1.583991088065541e-08 -2.405303909629481e-08 
5.234046809361872 -1.293361238061439e-07 3.796245798864671e-08 1.11731774399734e-07 -6.298209289979269e-08 -5.960845293227867e-08 5.435206843793231e-08 1.840880929345447e-08 -2.790093752820938e-08 
5.24004800960192 -1.507280815292612e-07 4.422947269395058e-08 1.301124145942591e-07 -7.328167521679094e-08 -6.93074637064561e-08 6.311012859868503e-08 2.137113277858895e-08 -3.232944896944207e-08 
5.246049209841968 -1.754785200400983e-07 5.147887660212846e-08 1.513603900974989e-07 -8.517800289055462e-08 -8.04998208450771e-08 7.320251685300339e-08 2.478336317401959e-08 -3.742059734495324e-08 
5.252050410082016 -2.040852037506882e-07 5.985613769234256e-08 1.758974151999064e-07 -9.890441950056408e-08 -9.340168672977609e-08 8.482019299874753e-08 2.870950764110007e-08 -4.326714719030041e-08 
5.258051610322064 -2.371150536205873e-07 6.95269378660814e-08 2.042032414916336e-07 -1.14726178012579e-07 -1.082583859722545e-07 9.817956755555254e-08 3.32220157538694e-08 -4.997388883579515e-08 
5.264052810562112 -2.752130696966136e-07 8.067978632657756e-08 2.368230559036439e-07 -1.329444843789573e-07 -1.253480281103037e-07 1.135256234309334e-07 3.840279649430414e-08 -5.765906105408815e-08 
5.27005401080216 -3.191123085711448e-07 9.352894364131707e-08 2.743757394750001e-07 -1.539010095009104e-07 -1.449855372337563e-07 1.311353838550113e-07 4.434434448674415e-08 -6.645592382110237e-08 
5.276055211042208 -3.696450277695496e-07 1.083176898769729e-07 3.175630761715224e-07 -1.779829181220083e-07 -1.675271286384321e-07 1.513217603540729e-07 5.11509854842634e-08 -7.65144947628937e-08 
5.282056411282256 -4.277551193962551e-07 1.253219733537886e-07 3.671800090169815e-07 -2.05628467576465e-07 -1.933752758694946e-07 1.74437817278954e-07 5.894025182558295e-08 -8.800346382417747e-08 
5.288057611522304 -4.945119664560581e-07 1.448544799744009e-07 4.241260492843946e-07 -2.37333233984343e-07 -2.229842149644074e-07 2.008814923130251e-07 6.784439931121397e-08 -1.011123016966985e-07 
5.294058811762352 -5.711258671596833e-07 1.67269166755179e-07 4.894179535527418e-07 -2.73657028483652e-07 -2.568660363411237e-07 2.311008154596686e-07 7.80120776993548e-08 -1.160535785856827e-07 
5.3000600120024 -6.589651852569712e-07 1.929663071416229e-07 5.642037930833434e-07 -3.152315714311111e-07 -2.955974185991442e-07 2.655996722532771e-07 8.961016779255975e-08 -1.330655109681667e-07 
5.306061212242448 -7.595753980535434e-07 2.22398099938803e-07 6.497785502283873e-07 -3.627689982036512e-07 -3.398270625080451e-07 3.049441603528797e-07 1.02825798871634e-07 -1.524147551054134e-07 
5.312062412482496 -8.747002282921663e-07 2.560748982492016e-07 7.476013874680925e-07 -4.170712763058421e-07 -3.902838876467788e-07 3.497695922645845e-07 1.178685610292032e-07 -1.743994672097171e-07 
5.318063612722544 -1.006305061551929e-06 2.945721196998507e-07 8.593147461968935e-07 -4.790406199481481e-07 -4.477860585223105e-07 4.007882006982711e-07 1.349729277568338e-07 -1.993526513298951e-07 
5.324064812962592 -1.156602867268281e-06 3.385379044748156e-07 9.867654445543412e-07 -5.496909951206465e-07 -5.132509115307585e-07 4.587976069944401e-07 1.544009049405317e-07 -2.276458172053012e-07 
5.33006601320264 -1.328082858934435e-06 3.887015932644837e-07 1.132027956431725e-06 -6.301608154592123e-07 -5.877058588186307e-07 5.246901171567335e-07 1.764449232131658e-07 -2.596929715402063e-07 
5.336067213442688 -1.523542147535973e-06 4.458831032165555e-07 1.297430067285652e-06 -7.217269368980793e-07 -6.723003499439244e-07 5.994629142910888e-07 2.014309913911957e-07 -2.959549673631877e-07 
5.342068413682736 -1.746120661819124e-06 5.11003286341886e-07 1.485581116556166e-06 -8.258200672351224e-07 -7.683189772119198e-07 6.842292206790156e-07 2.297221294784194e-07 -3.369442373533091e-07 
5.348069613922784 -1.999339629618327e-06 5.850953616081865e-07 1.69940305131607e-06 -9.440417153139641e-07 -8.771958156506611e-07 7.802305072939713e-07 2.617221004416696e-07 -3.832299382291862e-07 
5.354070814162832 -2.287143936185404e-06 6.693175191627844e-07 1.942164531261618e-06 -1.078182813558797e-06 -1.000530093775307e-06 8.888498332984214e-07 2.978794606418249e-07 -4.354435345005892e-07 
5.36007201440288 -2.613948698280678e-06 7.649668027786267e-07 2.217518341278644e-06 -1.230244157090734e-06 -1.140103296544086e-06 1.011626402925484e-06 3.386919494263454e-07 -4.942848510663565e-07 
5.366073214642928 -2.984690416709712e-06 8.734943847318082e-07 2.529542384562898e-06 -1.402458812614322e-06 -1.297897807203301e-06 1.150271432141806e-06 3.847112389439039e-07 -5.605286252975459e-07 
5.372074414882976 -3.404883095015946e-06 9.96522355909948e-07 2.882784546611937e-06 -1.597316660693308e-06 -1.476117200022388e-06 1.306685422594369e-06 4.365480657134265e-07 -6.350315903607003e-07 
5.378075615123024 -3.880679738159656e-06 1.135862163034273e-06 3.282311738304559e-06 -1.817591245937924e-06 -1.677208301195789e-06 1.482976945548133e-06 4.948777658536474e-07 -7.187401226017224e-07 
5.384076815363072 -4.418939672209912e-06 1.293534834469152e-06 3.733763444700738e-06 -2.066369121001646e-06 -1.903885140395557e-06 1.681483043806557e-06 5.604462361385821e-07 -8.126984868143013e-07 
5.39007801560312 -5.027302154322807e-06 1.471793146205341e-06 4.243410125079932e-06 -2.347081882131131e-06 -2.159154920551402e-06 1.90479136495387e-06 6.340763431712738e-07 -9.180577141454619e-07 
5.396079215843169 -5.714266771540461e-06 1.673145890251015e-06 4.818216829028784e-06 -2.663541106324075e-06 -2.446346138362661e-06 2.155764144644671e-06 7.166748029436874e-07 -1.036085148231224e-06 
5.402080416083217 -6.489281157175395e-06 1.900384418860239e-06 5.465912413021659e-06 -3.019976412918339e-06 -2.769138992753964e-06 2.437564164069482e-06 8.092395528543921e-07 -1.168174695893456e-06 
5.408081616323265 -7.362836584686866e-06 2.156611649783929e-06 6.195064761828955e-06 -3.421076885651825e-06 -3.131598222911962e-06 2.753682811117819e-06 9.128676378660501e-07 -1.315857819349991e-06 
5.414082816563313 -8.346572030941377e-06 2.445273730054014e-06 7.015162439148079e-06 -3.872036104882586e-06 -3.538208521618108e-06 3.107970380114785e-06 1.028763631878957e-06 -1.48081530737853e-06 
5.420084016803361 -9.453387333496332e-06 2.770194568717219e-06 7.936703211977628e-06 -4.378601053726462e-06 -3.993912673250341e-06 3.504668750292152e-06 1.158248614550943e-06 -1.664889863214842e-06 
5.426085217043409 -1.069756609995946e-05 3.135613462428778e-06 8.971289913332086e-06 -4.947125176335081e-06 -4.504152568986381e-06 3.94844658833713e-06 1.30276972268276e-06 -1.870099547140733e-06 
5.432086417283457 -1.209490906144729e-05 3.546226051905606e-06 1.013173412779386e-05 -5.584625881377468e-06 -5.074913254320629e-06 4.444437225405869e-06 1.463910293885559e-06 -2.098652111710401e-06 
5.438087617523505 -1.366287859656881e-05 4.007228861928325e-06 1.143216820398141e-05 -6.298846798976945e-06 -5.712770165915197e-06 4.998279363856105e-06 1.643400618526013e-06 -2.352960267357887e-06 
5.444088817763553 -1.542075518705479e-05 4.524367692876329e-06 1.28881661171205e-05 -7.098325114860912e-06 -6.424939715949532e-06 5.616160773604292e-06 1.843129313877312e-06 -2.635657915705886e-06 
5.450090018003601 -1.738980660098197e-05 5.103990147681799e-06 1.451687372337229e-05 -7.992464321270796e-06 -7.219333382410533e-06 6.304865142404221e-06 2.065155331961842e-06 -2.949617387239847e-06 
5.456091218243649 -1.959347063432952e-05 5.753102594598588e-06 1.633714896521092e-05 -8.991612740214349e-06 -8.104615463070745e-06 7.071822248432365e-06 2.31172060972485e-06 -3.297967719103438e-06 
5.462092418483697 -2.205755227615938e-05 6.4794318832982e-06 1.836971260375692e-05 -1.01071481908811e-05 -9.090264649123862e-06 7.925161627303175e-06 2.585263366898146e-06 -3.68411400759481e-06 
5.468093618723745 -2.481043619682246e-05 7.291492149525777e-06 2.06373100693461e-05 -1.135156918943791e-05 -1.018663957146753e-05 8.873769908977378e-06 2.888432053169172e-06 -4.111757868480769e-06 
5.474094818963793 -2.788331549202673e-05 8.198657061868847e-06 2.31648850355158e-05 -1.273859308592564e-05 -1.14050484683214e-05 9.927352002917605e-06 3.224099942033835e-06 -4.58491903648129e-06 
5.480096019203841 -3.131043764811126e-05 9.211237883103959e-06 2.597976533377793e-05 -1.428326155953597e-05 -1.275782311711712e-05 1.109649631223737e-05 3.595380363952113e-06 -5.107958133193997e-06 
5.486097219443889 -3.512936872518472e-05 1.034056773808291e-05 2.911186183675697e-05 -1.600205391010111e-05 -1.425839716626612e-05 1.239274415942885e-05 4.005642566114366e-06 -5.685600630312208e-06 
5.492098419683937 -3.938127678461367e-05 1.159909250019069e-05 3.259388094522791e-05 -1.791300860011837e-05 -1.592138899336521e-05 1.382866360748835e-05 4.458528180235847e-06 -6.32296203222683e-06 
5.498099619923985 -4.411123561537796e-05 1.30004687290382e-05 3.646155132000025e-05 -2.003585351798867e-05 -1.776268920550407e-05 1.541792786083189e-05 4.957968273299979e-06 -7.025574298979051e-06 
5.504100820164033 -4.936854983971617e-05 1.455966911323164e-05 4.075386550215321e-05 -2.239214544930638e-05 -1.979955288444958e-05 1.71753984302521e-05 5.508200949041915e-06 -7.799413527035705e-06 
5.510102020404081 -5.520710250191182e-05 1.629309589376893e-05 4.55133370645167e-05 -2.50054192589218e-05 -2.205069666446235e-05 1.911721324525673e-05 6.113789460179831e-06 -8.650928901482545e-06 
5.516103220644129 -6.168572626465557e-05 1.82187027658358e-05 5.078627393317415e-05 -2.790134730203484e-05 -2.453640071320404e-05 2.12608798953955e-05 6.779640782939876e-06 -9.587072928964767e-06 
5.522104420884177 -6.886859935476073e-05 2.03561257794874e-05 5.662306850979432e-05 -3.110790959768633e-05 -2.727861566648155e-05 2.362537417956935e-05 7.511024596263977e-06 -1.061533295604196e-05 
5.528105621124225 -7.68256674137159e-05 2.272682378288774e-05 6.307850521341924e-05 -3.465557531261156e-05 -3.030107454530307e-05 2.623124413877501e-05 8.313592598221499e-06 -1.174376397256326e-05 
5.534106821364273 -8.563309241818534e-05 2.535422897541171e-05 7.021208604357412e-05 -3.857749611742541e-05 -3.362940965875168e-05 2.910071974321477e-05 9.193398081553471e-06 -1.298102269420554e-05 
5.540108021604321 -9.537372984069246e-05 2.826390816197143e-05 7.808837474485449e-05 -4.290971199042916e-05 -3.729127446838187e-05 3.225782839914832e-05 1.015691567895458e-05 -1.433640291245426e-05 
5.546109221844369 -0.0001061376352208693 3.148373532438116e-05 8.677736012608325e-05 -4.76913700568825e-05 -4.131647035907863e-05 3.572851643423181e-05 1.121106117663782e-05 -1.581987209404729e-05 
5.552110422084417 -0.0001180226013123643 3.504407615039868e-05 9.635483905433967e-05 -5.296495706327319e-05 -4.573707822746537e-05 3.954077671233804e-05 1.236321128193163e-05 -1.744210920525183e-05 
5.558111622324465 -0.0001311347269592839 3.897798518624435e-05 0.0001069028196052482 -5.877654609685369e-05 -5.058759476188756e-05 4.372478251993704e-05 1.362122321713529e-05 -1.921454372931563e-05 
5.564112822564513 -0.0001455890188384004 4.332141630387317e-05 0.0001185099448054651 -6.517605817040464e-05 -5.590507324762266e-05 4.831302785600232e-05 1.499345399761713e-05 -2.114939583803607e-05 
5.570114022804561 -0.000161510027178804 4.811344720003131e-05 0.0001312719373509379 -7.221753930073783e-05 -6.172926868718191e-05 5.33404742460604e-05 1.648877923720014e-05 -2.325971767064347e-05 
5.576115223044609 -0.0001790325165386721 5.33965186701318e-05 0.0001452920656248347 -7.995945371676496e-05 -6.810278697828094e-05 5.88447041883961e-05 1.8116611308266e-05 -2.555943566511543e-05 
5.582116423284657 -0.000198302172678893 5.921668942620896e-05 0.0001606816312716551 -8.846499383895352e-05 -7.507123784120043e-05 6.486608132653238e-05 1.988691666775238e-05 -2.806339387865249e-05 
5.588117623524705 -0.0002194763465248699 6.562390725461499e-05 0.0001775604785085761 -9.780240767656371e-05 -8.268339113277329e-05 7.144791742691091e-05 2.181023214336232e-05 -3.078739822537741e-05 
5.594118823764753 -0.0002427248361504664 7.267229733568641e-05 0.000196057525271172 -0.0001080453442921236 -9.099133612608439e-05 7.863664622419117e-05 2.389767995689155e-05 -3.374826155040195e-05 
5.600120024004801 -0.0002682307076511932 8.042046857428454e-05 0.0002163113161979385 -0.0001192732179840646 -0.0001000506432731301 8.648200417876046e-05 2.616098124367149e-05 -3.696384945026987e-05 
