# Energy: -53.8840527398681
# J: 1
# M: 0
# Lmin: 0
# Lmax: 8
# grid size: 5000
# h: 0.006001200240048009
5 0 0 0 0 0 0 0 0 
5.006001200240048 2.012087249045799e-12 -5.940478357054613e-13 -1.778371933123431e-12 1.024991049776137e-12 9.936902481871187e-13 -9.397218523460228e-13 -3.21756171138224e-13 5.126530807054424e-13 
5.012002400480096 4.100965353790307e-12 -1.210590934099174e-12 -3.624226217171887e-12 2.088370753824924e-12 2.024670653868734e-12 -1.914040573100125e-12 -6.554872247746413e-13 1.043855696207593e-12 
5.018003600720144 6.344470133600439e-12 -1.872429312743128e-12 -5.605962319954102e-12 3.229046748363779e-12 3.130739523427174e-12 -2.958024114742902e-12 -1.013333444561707e-12 1.612418728564146e-12 
5.024004800960192 8.824146474544889e-12 -2.603440177488521e-12 -7.795219370899034e-12 4.48774372018665e-12 4.351466577507549e-12 -4.10835283958699e-12 -1.40800102668417e-12 2.238009784465416e-12 
5.03000600120024 1.162806993847057e-11 -3.429395960115297e-12 -1.026933577624632e-11 5.908377863828151e-12 5.729530570933221e-12 -5.404527781586702e-12 -1.853186123421465e-12 2.941783714428173e-12 
5.036007201440288 1.485375284383695e-11 -4.378806603642594e-12 -1.311388195808578e-11 7.539471578129882e-12 7.312096437467705e-12 -6.890114174505974e-12 -2.364011540762702e-12 3.747032398549108e-12 
5.042008401680336 1.861122898879647e-11 -5.483813028056244e-12 -1.642534738099039e-11 9.435652669248206e-12 9.152275068192201e-12 -8.614057715573395e-12 -2.957489466365646e-12 4.679872371737752e-12 
5.048009601920384 2.302640968201742e-11 -6.78115828274873e-12 -2.031406173656217e-11 1.165928163466506e-11 1.131070817551706e-11 -1.063211050913174e-11 -3.653023419730549e-12 5.76998873780364e-12 
5.054010802160432 2.824480528631125e-11 -8.313263320189277e-12 -2.490743144503111e-11 1.42822512711183e-11 1.385732136054915e-11 -1.300840419427901e-11 -4.47296282828729e-12 7.051454173086163e-12 
5.06001200240048 3.443571078559439e-11 -1.012943553097123e-11 -3.035357626898024e-11 1.73880047571198e-11 1.687329037234989e-11 -1.581720931228493e-11 -5.443224206954788e-12 8.563642618291207e-12 
5.066013202640528 4.179696078745335e-11 -1.228724011598082e-11 -3.682545667272605e-11 2.107382143191717e-11 2.045326855008857e-11 -1.914492245492621e-11 -6.593993833031262e-12 1.035225848343195e-11 
5.072014402880576 5.056036879179097e-11 -1.485406701421234e-11 -4.452559053197882e-11 2.54534236891389e-11 2.470792753619943e-11 -2.309232612274447e-11 -7.960528051876912e-12 1.247050383589097e-11 
5.078015603120624 6.099797748642365e-11 -1.790892945270914e-11 -5.36914678950667e-11 3.065996371851249e-11 2.976686853409448e-11 -2.777717050497721e-11 -9.58406891943531e-12 1.498040810450261e-11 
5.084016803360672 7.34292613337347e-11 -2.154453425411008e-11 -6.460178476613826e-11 3.684945528389887e-11 3.5781967677893e-11 -3.333713158313864e-11 -1.151289479044664e-11 1.795434731957342e-11 
5.09001800360072 8.822943990653345e-11 -2.586966885898679e-11 -7.758363141677304e-11 4.42047233654388e-11 4.293122652733186e-11 -3.993320608826216e-11 -1.380352770809426e-11 2.147678283312238e-11 
5.096019203840768 1.058390804860498e-10 -3.101195564051673e-11 -9.302078767269548e-11 5.293995338451082e-11 5.142320736269932e-11 -4.775361095385774e-11 -1.652212205957256e-11 2.564625284479077e-11 
5.102020404080816 1.267751915688097e-10 -3.712103056728853e-11 -1.113632971439535e-10 6.330593195907134e-11 6.150214291563941e-11 -5.701826306334643e-11 -1.974606195584064e-11 3.05776539220692e-11 
5.108021604320864 1.516440354065408e-10 -4.437221067807174e-11 -1.331385146849554e-10 7.559608280923395e-11 7.345382153339096e-11 -6.798392436622621e-11 -2.356579820083038e-11 3.640485407929862e-11 
5.114022804560912 1.811559178339834e-10 -5.297072325444128e-11 -1.589638467369047e-10 9.015341467223187e-11 8.761236165513712e-11 -8.095010791834856e-11 -2.808695956857057e-11 4.328368390392944e-11 
5.12002400480096 2.161422477783619e-10 -6.315657910971401e-11 -1.895614329075488e-10 1.073785130336046e-10 1.043680040152634e-10 -9.626585218753415e-11 -3.343277744362208e-11 5.139535773112318e-11 
5.126025205041008 2.575751973917643e-10 -7.521018316460967e-11 -2.257750495065261e-10 1.277387242966809e-10 1.241760663318316e-10 -1.143374841673541e-10 -3.974686774292502e-11 6.09503830138302e-11 
5.132026405281056 3.065903371510914e-10 -8.945878757290806e-11 -2.685895521410692e-10 1.517786998722712e-10 1.475672235586987e-10 -1.356375065820266e-10 -4.719641947209874e-11 7.219302286417769e-11 
5.138027605521104 3.645126690253431e-10 -1.0628390622872e-10 -3.191532152868198e-10 1.801324887702152e-10 1.751592972627426e-10 -1.607147608784923e-10 -5.597584532725949e-11 8.540638430670258e-11 
5.144028805761153 4.328865354630785e-10 -1.261298246789655e-10 -3.788033724222103e-10 2.135373908280275e-10 2.07670760537236e-10 -1.902060359339599e-10 -6.631095648978727e-11 1.009182131420183e-10 
5.150030006001201 5.135099431030081e-10 -1.495133564425504e-10 -4.490958113337211e-10 2.528498089526362e-10 2.459361903000143e-10 -2.248493126163734e-10 -7.846373123583809e-11 1.191074855320737e-10 
5.156031206241249 6.08473908412456e-10 -1.770350156786831e-10 -5.318384360877157e-10 2.990633679322111e-10 2.909239270903537e-10 -2.654988566909042e-10 -9.273775525883412e-11 1.40411896550089e-10 
5.162032406481297 7.202075086245587e-10 -2.093917972433946e-10 -6.291297704918206e-10 3.533295997700688e-10 3.437562338298067e-10 -3.13142397249085e-10 -1.094844207501815e-10 1.6533635705783e-10 
5.168033606721345 8.515294061495742e-10 -2.473917786345682e-10 -7.434029482510096e-10 4.169815313965703e-10 4.057322797271278e-10 -3.689206550416877e-10 -1.291099813739683e-10 1.944626224516633e-10 
5.174034806961393 1.005706708916718e-09 -2.919707843776308e-10 -8.774759131254533e-10 4.915605503447164e-10 4.783543138830035e-10 -4.341495150268578e-10 -1.52083571382688e-10 2.284601901313767e-10 
5.180036007201441 1.186522133765965e-09 -3.442113822903619e-10 -1.034608638934425e-09 5.788469678703709e-10 5.633574355036373e-10 -5.103451703180016e-10 -1.789463093347538e-10 2.68098617069316e-10 
5.186037207441489 1.398350556030478e-09 -4.053645130486079e-10 -1.218568274991273e-09 6.808947474215639e-10 6.627434143007173e-10 -5.992526007595751e-10 -2.103216202765552e-10 3.142614246716126e-10 
5.192038407681537 1.646246156879147e-09 -4.768740898370286e-10 -1.433703228321279e-09 8.000709196998156e-10 7.788190659967387e-10 -7.028777888128158e-10 -2.469269249320429e-10 3.679617753097689e-10 
5.198039607921585 1.936041521951656e-09 -5.604049439127231e-10 -1.685027310686193e-09 9.391002642210668e-10 9.142397442475936e-10 -8.235241185479325e-10 -2.895868604951506e-10 4.303601235427245e-10 
5.204040808161633 2.274460201521419e-09 -6.578745349579739e-10 -1.978315206952965e-09 1.101115901710386e-09 1.072058572137677e-09 -9.638334505752338e-10 -3.392482151423027e-10 5.02784065230871e-10 
5.210042008401681 2.669244415153143e-09 -7.714888924966074e-10 -2.32021066269545e-09 1.289716512314283e-09 1.25578210411592e-09 -1.126832416975942e-09 -3.969967774746894e-10 5.867506295487563e-10 
5.216043208641729 3.12929977395504e-09 -9.037833067641913e-10 -2.718348944162967e-09 1.509030971973287e-09 1.469433183263366e-09 -1.315984535993793e-09 -4.640763228667574e-10 6.839912824166407e-10 
5.222044408881777 3.664859102521878e-09 -1.057668344646187e-09 -3.181495294005571e-09 1.763791283877139e-09 1.717621839572819e-09 -1.535248806709065e-09 -5.419099812448074e-10 7.964799351756465e-10 
5.228045609121824 4.287667672074208e-09 -1.236481829044655e-09 -3.719701292591442e-09 2.059414774261985e-09 2.005625162955749e-09 -1.789145509432467e-09 -6.321242552560061e-10 9.264642795082747e-10 
5.234046809361872 5.011192407762867e-09 -1.444047488741604e-09 -4.344481238627187e-09 2.402096622464789e-09 2.339477180465451e-09 -2.082830008428315e-09 -7.365759842231517e-10 1.076500798733698e-09 
5.24004800960192 5.850857908359504e-09 -1.68474106095865e-09 -5.069010885398961e-09 2.798913904710278e-09 2.726069871248824e-09 -2.422175430109641e-09 -8.573825778243229e-10 1.249493836759954e-09 
5.246049209841968 6.824312417420413e-09 -1.963564710855936e-09 -5.908351111651795e-09 3.25794245017881e-09 3.173266565536502e-09 -2.813865172349856e-09 -9.969558741990093e-10 1.44873913922215e-09 
5.252050410082016 7.951727213411552e-09 -2.286230721680941e-09 -6.879699370338376e-09 3.788387937120671e-09 3.690029096089185e-09 -3.26549628933477e-09 -1.158040010272126e-09 1.677972316740116e-09 
5.258051610322064 9.256133244229857e-09 -2.659255506707274e-09 -8.002672045672028e-09 4.400732796795152e-09 4.286560202482935e-09 -3.785694891741145e-09 -1.343753727610677e-09 1.941422717845834e-09 
5.264052810562112 1.07637992211529e-08 -3.090065100056826e-09 -9.299621160644133e-09 5.10690064449204e-09 4.974462830990966e-09 -4.384244804276109e-09 -1.557637575187529e-09 2.243873239006618e-09 
5.27005401080216 1.250465581068826e-08 -3.58711339856212e-09 -1.079598921499297e-08 5.920440120526795e-09 5.766918126160383e-09 -5.072230832040745e-09 -1.80370651112055e-09 2.590726641340047e-09 
5.276055211042208 1.451277102235364e-08 -4.160014551609541e-09 -1.25207062991665e-08 6.856730200590999e-09 6.67888407504528e-09 -5.862198104076264e-09 -2.08650844887454e-09 2.988078988104129e-09 
5.282056411282256 1.682688238845969e-08 -4.819691031040906e-09 -1.450663402477164e-08 7.933209224900368e-09 7.727316941993819e-09 -6.768329087084694e-09 -2.411189339641281e-09 3.442800863860393e-09 
5.288057611522304 1.949099207092771e-08 -5.578539059336265e-09 -1.679106123804708e-08 9.169630099936944e-09 8.931417821438266e-09 -7.806639994942336e-09 -2.783565431723178e-09 3.962627085341781e-09 
5.294058811762352 2.255503161255985e-08 -6.450613232129206e-09 -1.941625694176256e-08 1.058834434595705e-08 1.031290683882997e-08 -8.995198460478286e-09 -3.210203399799528e-09 4.556255665486941e-09 
5.3000600120024 2.607560367856326e-08 -7.4518323413135e-09 -2.24300863443784e-08 1.221461789856025e-08 1.189632774620241e-08 -1.035436448528102e-08 -3.698509091999813e-09 5.233456845783476e-09 
5.306061212242448 3.011680881113568e-08 -8.60020858829703e-09 -2.588669648504655e-08 1.407698182421222e-08 1.370938588931326e-08 -1.190705684120322e-08 -4.256825700776468e-09 6.005193067928951e-09 
5.312062412482496 3.475116594821796e-08 -9.9161025740746e-09 -2.984727845084723e-08 1.620762137840026e-08 1.578332276835579e-08 -1.36790472639041e-08 -4.89454222467395e-09 6.883750813780099e-09 
5.318063612722544 4.006063623980716e-08 -1.142250666446333e-08 -3.43809138102659e-08 1.864280712177787e-08 1.815333067424232e-08 -1.569928495430613e-08 -5.622213152222942e-09 7.882885302501589e-09 
5.324064812962592 4.613776053422464e-08 -1.314535955582546e-08 -3.956551353602683e-08 2.142337211490171e-08 2.085901115780181e-08 -1.800025408831091e-08 -6.451690366317279e-09 9.017979095602344e-09 
5.33006601320264 5.308692180516393e-08 -1.511389510964842e-08 -4.548885838267282e-08 2.459523953663922e-08 2.394488138018896e-08 -2.061836722852928e-08 -7.396268337496974e-09 1.030621572398508e-08 
5.336067213442688 6.10257447509148e-08 -1.736102878422365e-08 -5.224975042130812e-08 2.8210005415643e-08 2.746093269960227e-08 -2.359439773408828e-08 -8.470843747477396e-09 1.176676951602688e-08 
5.342068413682736 7.008664582254274e-08 -1.992378526912256e-08 -5.995928621722691e-08 3.232558152903331e-08 3.146324617219232e-08 -2.697395447568003e-08 -9.692090759910016e-09 1.342101287181414e-08 
5.348069613922784 8.04185480306218e-08 -2.284377122396882e-08 -6.874226296714594e-08 3.700690390812575e-08 3.60146699838679e-08 -3.080800238273717e-08 -1.107865323357935e-08 1.529274229569706e-08 
5.354070814162832 9.218877604290983e-08 -2.616769733789649e-08 -7.873872979274675e-08 4.232671279816678e-08 4.118556418452745e-08 -3.515343257771507e-08 -1.265135525383773e-08 1.740842456699036e-08 
5.36007201440288 1.055851483205659e-07 -2.99479542607985e-08 -9.010569731736405e-08 4.836641034799123e-08 4.70546184668962e-08 -4.007368608859942e-08 -1.443343144081792e-08 1.979746449657257e-08 
5.366073214642928 1.208182843504538e-07 -3.424324731272529e-08 -1.030190196339142e-07 5.521700275662961e-08 5.370974911835146e-08 -4.563943537453104e-08 -1.645077857755905e-08 2.249249578492871e-08 
5.372074414882976 1.381241464178898e-07 -3.911929525427888e-08 -1.176754638053377e-07 6.298013407740732e-08 6.124908167544352e-08 -5.192932815033962e-08 -1.873223018730383e-08 2.552969656439887e-08 
5.378075615123024 1.577668368298737e-07 -4.46495987992268e-08 -1.342949831244952e-07 7.176921937614005e-08 6.978202622668923e-08 -5.903079825319643e-08 -2.130985577648815e-08 2.894913127455327e-08 
5.384076815363072 1.800416730450929e-07 -5.091628497145341e-08 -1.531232114989213e-07 8.171068545868104e-08 7.94304527388922e-08 -6.704094855783227e-08 -2.421928654790987e-08 3.279512058418254e-08 
5.39007801560312 2.05278564795336e-07 -5.801103385236229e-08 -1.744341975171509e-07 9.294532792424115e-08 9.032997422479541e-08 -7.60675112149896e-08 -2.750006947673395e-08 3.711664113579273e-08 
5.396079215843169 2.33845718994538e-07 -6.603609473246542e-08 -1.98533397997193e-07 1.056297938643691e-07 1.026313460241984e-07 -8.622989076005776e-08 -3.119605172980153e-08 4.196775694810604e-08 
5.402080416083217 2.661537000273966e-07 -7.510539917262945e-08 -2.257609521135242e-07 1.199382001129157e-07 1.165019899354227e-07 -9.766029591411756e-08 -3.535579749554305e-08 4.740808436821996e-08 
5.408081616323265 3.026598748898057e-07 -8.534577899669843e-08 -2.564952585456814e-07 1.360638975592075e-07 1.321276524076674e-07 -1.105049661767081e-07 -4.003303937694932e-08 5.350329251705489e-08 
5.414082816563313 3.438732746183017e-07 -9.689829777832439e-08 -2.911568794877375e-07 1.542213926643639e-07 1.497142064855451e-07 -1.249254995872147e-07 -4.528716658277259e-08 6.032564121876235e-08 
5.420084016803361 3.903599054949156e-07 -1.099197049510696e-07 -3.302127968017612e-07 1.746484379683976e-07 1.694896076829213e-07 -1.411002883084083e-07 -5.118375223157603e-08 6.795455844606841e-08 
5.426085217043409 4.427485456463462e-07 -1.245840222623744e-07 -3.741810470873918e-07 1.976083040424058e-07 1.91706014451765e-07 -1.592260689597517e-07 -5.779512215851115e-08 7.647725934824409e-08 
5.432086417283457 5.017370648707328e-07 -1.41084272908894e-07 -4.236357639710506e-07 2.233922460246032e-07 2.166420844005059e-07 -1.795195948979155e-07 -6.520096768480143e-08 8.598940895563807e-08 
5.438087617523505 5.680993078194431e-07 -1.596343643329801e-07 -4.792126574885269e-07 2.523221785797452e-07 2.44605457902487e-07 -2.022194379056238e-07 -7.348900487377728e-08 9.65958306735565e-08 
5.444088817763553 6.426925830324361e-07 -1.804711363275729e-07 -5.416149620396997e-07 2.847535738370294e-07 2.759354412153445e-07 -2.275879270054849e-07 -8.275568285381443e-08 1.084112626877721e-07 
5.450090018003601 7.264658027704943e-07 -2.038565867892561e-07 -6.116198860292253e-07 3.210785975899967e-07 3.110059017030499e-07 -2.55913232360698e-07 -9.310694383644475e-08 1.21561164403105e-07 
5.456091218243649 8.204683211017121e-07 -2.300802881763197e-07 -6.900855979667474e-07 3.617294997812033e-07 3.502283882100946e-07 -2.875116024571632e-07 -1.046590374959633e-07 1.361825750243294e-07 
5.462092418483697 9.258595202780836e-07 -2.594620084698751e-07 -7.779587854784726e-07 4.071822760421831e-07 3.94055490077759e-07 -3.227297629791403e-07 -1.175393924036649e-07 1.524250263640927e-07 
5.468093618723745 1.043919198074928e-06 -2.923545512007453e-07 -8.762828253718959e-07 4.579606178129392e-07 4.429844487111018e-07 -3.619474859906345e-07 -1.318875472239785e-07 1.704515119245497e-07 
5.474094818963793 1.176058811454556e-06 -3.29146829892223e-07 -9.862066045894058e-07 5.146401693220294e-07 4.975610359973967e-07 -4.055803382144467e-07 -1.478561443797159e-07 1.904395142469555e-07 
5.480096019203841 1.323833634648082e-06 -3.702671930779033e-07 -1.108994033576019e-06 5.778531104652667e-07 5.583837142371054e-07 -4.540826173574905e-07 -1.656119888778457e-07 2.125820924554831e-07 
5.486097219443889 1.488955892517166e-06 -4.161870168836018e-07 -1.246034295262187e-06 6.482930853747331e-07 6.261080925715425e-07 -5.079504855616636e-07 -1.8533717495399e-07 2.370890318369969e-07 
5.492098419683937 1.673308932850516e-06 -4.67424583011593e-07 -1.398852874514397e-06 7.267204972167124e-07 7.014516951713606e-07 -5.677253091611626e-07 -2.072302831415587e-07 2.641880571963866e-07 
5.498099619923985 1.878962504057834e-06 -5.245492608326542e-07 -1.569123414522871e-06 8.139681904934287e-07 7.851990566806149e-07 -6.33997213996651e-07 -2.315076502983122e-07 2.941261116063683e-07 
5.504100820164033 2.108189207533992e-06 -5.881860131751063e-07 -1.758680448165309e-06 9.109475428450196e-07 8.782071605859662e-07 -7.074088655707988e-07 -2.584047150274254e-07 3.27170702030413e-07 
5.510102020404081 2.363482196765807e-06 -6.590202462984635e-07 -1.969533053895132e-06 1.018654989050731e-06 9.814112362926752e-07 -7.886594833252803e-07 -2.881774408099776e-07 3.636113131367591e-07 
5.516103220644129 2.647574198028205e-06 -7.378030254505682e-07 -2.203879487138293e-06 1.138179000607247e-06 1.09583093073125e-06 -8.785090982729542e-07 -3.211038190194026e-07 4.037608904394446e-07 
5.522104420884177 2.963457930250347e-06 -8.253566783290889e-07 -2.464122839529557e-06 1.270707544912585e-06 1.222576870283576e-06 -9.777830631273434e-07 -3.574854538139207e-07 4.479573936981777e-07 
5.528105621124225 3.314408004308477e-06 -9.225808096987848e-07 -2.75288777956144e-06 1.41753604870114e-06 1.362857628697157e-06 -1.087376823931402e-06 -3.976492306985425e-07 4.965654212819149e-07 
5.534106821364273 3.704004384602824e-06 -1.030458751352673e-06 -3.073038429339891e-06 1.580075890953875e-06 1.51798711644299e-06 -1.208260961995475e-06 -4.419490703119968e-07 5.499779059506506e-07 
5.540108021604321 4.136157498281193e-06 -1.150064472545467e-06 -3.42769743312287e-06 1.759863451042111e-06 1.689392406658233e-06 -1.341486514707125e-06 -4.90767768724128e-07 6.086178822355951e-07 
5.546109221844369 4.615135079861682e-06 -1.282569976968933e-06 -3.820266274142261e-06 1.958569738348058e-06 1.878622012390866e-06 -1.488190583469851e-06 -5.445189252241606e-07 6.729403252992502e-07 
5.552110422084417 5.145590841258734e-06 -1.429253213278096e-06 -4.254446896856912e-06 2.17801063003462e-06 2.087354629321385e-06 -1.6496022366605e-06 -6.036489582380375e-07 7.434340608335969e-07 
5.558111622324465 5.732595059307722e-06 -1.591506527111701e-06 -4.734264692234383e-06 2.420157744004981e-06 2.317408357467758e-06 -1.827048715063374e-06 -6.686392096321923e-07 8.206237452065659e-07 
5.564112822564513 6.381667174788724e-06 -1.770845683476842e-06 -5.26409290389036e-06 2.687149974393375e-06 2.570750414575496e-06 -2.021961946739816e-06 -7.400081372400937e-07 9.050719146942127e-07 
5.570114022804561 7.098810498644593e-06 -1.96891948928315e-06 -5.848678512905326e-06 2.981305717155938e-06 2.849507352946027e-06 -2.235885377722551e-06 -8.183135949852889e-07 9.973811022386859e-07 
5.576115223044609 7.89054912254457e-06 -2.187520046712887e-06 -6.493169658865852e-06 3.305135813478572e-06 3.15597579035503e-06 -2.470481124282024e-06 -9.041551994692175e-07 1.098196019750591e-06 
5.582116423284657 8.763967132135597e-06 -2.428593668996757e-06 -7.203144654118704e-06 3.661357238781514e-06 3.492633664449439e-06 -2.727537451794822e-06 -9.98176781342657e-07 1.208205803529215e-06 
5.588117623524705 9.726750222218482e-06 -2.694252491027314e-06 -7.984642647357195e-06 4.052907565071361e-06 3.862152018578609e-06 -3.008976584450321e-06 -1.101068919185365e-06 1.328146319906046e-06 
5.594118823764753 1.078722981365683e-05 -2.986786808079702e-06 -8.844195991455304e-06 4.482960224264736e-06 4.267407325404068e-06 -3.316862849158902e-06 -1.213571552978599e-06 1.458802527727048e-06 
5.600120024004801 1.195442977204134e-05 -3.30867817671902e-06 -9.78886436890207e-06 4.954940599878013e-06 4.711494352834843e-06 -3.653411156072441e-06 -1.336476673569192e-06 1.601010893778373e-06 
