# Energy: -1.431716437130906
# J: 1
# M: 0
# Lmin: 0
# Lmax: 8
# grid size: 5000
# h: 0.006001200240048009
5 0 0 0 0 0 0 0 0 
5.006001200240048 -9.754413164160698e-11 2.858399271033673e-11 8.636885235107218e-11 -4.940518184604545e-11 -4.847606564432981e-11 4.542548428202111e-11 1.583165926811772e-11 -2.487002899687838e-11 
5.012002400480096 -1.987523714851795e-10 5.823052836469299e-11 1.759651365550085e-10 -1.006275192487677e-10 -9.874598140412812e-11 9.24945495992795e-11 3.224586387017006e-11 -5.062531425509599e-11 
5.018003600720144 -3.073350805452953e-10 9.001535672996339e-11 2.720570815706967e-10 -1.555067697853058e-10 -1.526264908405629e-10 1.428714823895264e-10 4.983279149043705e-11 -7.816275400441456e-11 
5.024004800960192 -4.271735291278444e-10 1.250630662312711e-10 3.780627230125279e-10 -2.159653334811474e-10 -2.120169851166971e-10 1.982943054732107e-10 6.920948416855239e-11 -1.084187140057993e-10 
5.03000600120024 -5.624518794728735e-10 1.645848030708918e-10 4.976653124300039e-10 -2.840718019965095e-10 -2.789627612370906e-10 2.606309017763807e-10 9.104020885189782e-11 -1.423984890875365e-10 
5.036007201440288 -7.177927174443367e-10 2.099169730177703e-10 6.349318212512851e-10 -3.621061487534108e-10 -3.55719985563677e-10 3.319365952165577e-10 1.16057384755828e-10 -1.812065793455264e-10 
5.042008401680336 -8.98400452862516e-10 2.625621366348244e-10 7.944382776161372e-10 -4.526285565938046e-10 -4.448243687819472e-10 4.145148880153459e-10 1.450837126801951e-10 -2.260786289453389e-10 
5.048009601920384 -1.110216816336228e-09 3.242332818689215e-10 9.814055960583893e-10 -5.585538361848223e-10 -5.491655191642661e-10 5.109830203468954e-10 1.790561306396169e-10 -2.784158656989893e-10 
5.054010802160432 -1.360092726416204e-09 3.969026687064034e-10 1.20184959912254e-09 -6.832334051248195e-10 -6.720689625517371e-10 6.24344033026071e-10 2.190522280862616e-10 -3.398228909744246e-10 
5.06001200240048 -1.655980970901959e-09 4.828564852352854e-10 1.462749074976841e-09 -8.305468686399392e-10 -8.173878941729717e-10 7.580670723992362e-10 2.663197759442103e-10 -4.121497006324009e-10 
5.066013202640528 -2.007154431467078e-09 5.847566304994305e-10 1.772235958498842e-09 -1.005005363979113e-09 -9.896068554846091e-10 9.161777756983704e-10 3.223100705391057e-10 -4.975388675970593e-10 
5.072014402880576 -2.424454976727662e-09 7.057110455937184e-10 2.139812061114801e-09 -1.2118689998397e-09 -1.193959706572439e-09 1.103360713038954e-09 3.887158456957915e-10 -5.98478884764128e-10 
5.078015603120624 -2.920578654122371e-09 8.493541500327034e-10 2.576597205635169e-09 -1.457280938474627e-09 -1.436564490610511e-09 1.325076038179004e-09 4.675145786049468e-10 -7.178647529969138e-10 
5.084016803360672 -3.510403426999456e-09 1.019939105778039e-09 3.095614147590804e-09 -1.748420931786367e-09 -1.724578061945954e-09 1.587692714164109e-09 5.610181016966366e-10 -8.590670030339814e-10 
5.09001800360072 -4.211366434083614e-09 1.222443827327546e-09 3.712116287350816e-09 -2.093681434936094e-09 -2.0663736751003e-09 1.898640932852738e-09 6.719295351818713e-10 -1.026010462596275e-09 
5.096019203840768 -5.043898600184899e-09 1.46269288441588e-09 4.443964902639316e-09 -2.502869783890474e-09 -2.471745110810709e-09 2.266586640482821e-09 8.034086738841198e-10 -1.223264221452802e-09 
5.102020404080816 -6.031925407776254e-09 1.747497706130992e-09 5.312063465678806e-09 -2.987440339773429e-09 -2.952141350463366e-09 2.701631416911122e-09 9.591470984809329e-10 -1.456144408529501e-09 
5.108021604320864 -7.20344375893998e-09 2.08481779406231e-09 6.340857561340377e-09 -3.560760976475814e-09 -3.520936305951395e-09 3.215541336451767e-09 1.143454436540355e-09 -1.730831577379389e-09 
5.114022804560912 -8.591186127990009e-09 2.483945990361193e-09 7.55891000212002e-09 -4.238418822951906e-09 -4.193738672901894e-09 3.82200886634973e-09 1.361357374213071e-09 -2.05450470071562e-09 
5.12002400480096 -1.023338464038486e-08 2.955721227633607e-09 8.999561953667857e-09 -5.038570772872562e-09 -4.988747606839261e-09 4.536952338273992e-09 1.618713216781368e-09 -2.435494002655857e-09 
5.126025205041008 -1.217464932865648e-08 3.512772615136856e-09 1.070169225356867e-08 -5.98234494728492e-09 -5.92716063034628e-09 5.378858062635631e-09 1.92234001732377e-09 -2.883455110405954e-09 
5.132026405281056 -1.446697662803326e-08 4.169799193964617e-09 1.271058864012006e-08 -7.094300046704775e-09 -7.033640971484738e-09 6.369170749244263e-09 2.280165539580591e-09 -3.409567287035683e-09 
5.138027605521104 -1.717090620203894e-08 4.943890227333977e-09 1.507894632241957e-08 -8.40295036426839e-09 -8.336852417152572e-09 7.532738555392619e-09 2.701397595947968e-09 -4.026758815610784e-09 
5.144028805761153 -2.035684645221958e-08 5.854891485701892e-09 1.786801123504771e-08 -9.941365158386846e-09 -9.87007074786955e-09 8.898319808831434e-09 3.196718606828469e-09 -4.749962944202823e-09 
5.150030006001201 -2.410659158876144e-08 6.925823645616602e-09 2.114888744840142e-08 -1.17478521095281e-08 -1.167188191156732e-08 1.049915925352342e-08 3.778507565963087e-09 -5.596408173263582e-09 
5.156031206241249 -2.851505594450009e-08 8.183359651749122e-09 2.500403056919031e-08 -1.386673571959954e-08 -1.378697830287332e-08 1.237364254611673e-08 4.461092970695798e-09 -6.585947073677166e-09 
5.162032406481297 -3.369225433005215e-08 9.658368699670974e-09 2.952895158622166e-08 -1.634924276276637e-08 -1.626706585138172e-08 1.456603869661962e-08 5.261040689408155e-09 -7.741428267718865e-09 
5.168033606721345 -3.976556068092587e-08 1.138653538928926e-08 3.483415851742858e-08 -1.925450827280344e-08 -1.917189609846827e-08 1.712734120392849e-08 6.197481193832532e-09 -9.089116688443839e-09 
5.174034806961393 -4.688228106898984e-08 1.340906358249094e-08 4.104736641984486e-08 -2.265071706415455e-08 -2.257043906901462e-08 2.011621979204816e-08 7.292481085030658e-09 -1.065916775803066e-08 
5.180036007201441 -5.521258137326579e-08 1.577347558098169e-08 4.831600986127018e-08 -2.661639744219145e-08 -2.654221453436322e-08 2.360009591265703e-08 8.571464392122313e-09 -1.248616169466792e-08 
5.186037207441489 -6.495281456353594e-08 1.853451842945452e-08 5.68100958487824e-08 -3.124188557364535e-08 -3.117880122904898e-08 2.765635655090831e-08 1.006368972617213e-08 -1.460970477304959e-08 
5.192038407681537 -7.632929768186782e-08 2.175519045343053e-08 6.672543949484302e-08 -3.663098097221801e-08 -3.658554574018549e-08 3.237372236097599e-08 1.180279003197967e-08 -1.707510502776564e-08 
5.198039607921585 -8.960259425129518e-08 2.550790256913124e-08 7.828732940805045e-08 -4.290281571879278e-08 -4.288349514936113e-08 3.785378777291008e-08 1.382738240203726e-08 -1.99341306041177e-08 
5.204040808161633 -1.050723640393356e-07 2.987579046371657e-08 9.175467495591554e-08 -5.019396239268696e-08 -5.021158008775732e-08 4.42127524599823e-08 1.618175620395906e-08 -2.324585972935212e-08 
5.210042008401681 -1.230828489008853e-07 3.495419544767802e-08 1.074246931963892e-07 -5.86608082525856e-08 -5.872907768183453e-08 5.158336544300695e-08 1.891664862973832e-08 -2.707763210106805e-08 
5.216043208641729 -1.440290708667778e-07 4.085233363699254e-08 1.25638199449994e-07 -6.84822259860459e-08 -6.861838693587102e-08 6.011710514217479e-08 2.209011770689935e-08 -3.150611237055933e-08 
5.222044408881777 -1.683638267797051e-07 4.76951751410158e-08 1.467855722237232e-07 -7.986257435784852e-08 -8.008815243601522e-08 6.998662087468151e-08 2.576852382274049e-08 -3.661847733882757e-08 
5.228045609121824 -1.966055726593598e-07 5.562555712350591e-08 1.713134705413938e-07 -9.303506534324064e-08 -9.337677588600077e-08 8.138846364458184e-08 3.002763190829225e-08 -4.25137394834708e-08 
5.234046809361872 -2.293473006568503e-07 6.480655697933945e-08 1.997323897244398e-07 -1.082655378455544e-07 -1.087563589154254e-07 9.454613658628883e-08 3.495384761329193e-08 -4.930422049683446e-08 
5.24004800960192 -2.672665219900954e-07 7.542415443931208e-08 2.326251503452319e-07 -1.258566818820421e-07 -1.265371248560894e-07 1.097134981109849e-07 4.064560208241979e-08 -5.711718964061269e-08 
5.246049209841968 -3.111364806944715e-07 8.769021419092906e-08 2.706564244862192e-07 -1.461527611901276e-07 -1.470723717792181e-07 1.271785536714433e-07 4.721490132128415e-08 -6.609668291001737e-08 
5.252050410082016 -3.618387354357711e-07 1.018458235953505e-07 3.145834136280231e-07 -1.695448865714075e-07 -1.707640140455891e-07 1.472676751102743e-07 5.478905762320759e-08 -7.640552025177175e-08 
5.258051610322064 -4.203772600765523e-07 1.181650233006955e-07 3.652678035045289e-07 -1.964768969649825e-07 -1.980687749608875e-07 1.703502897935697e-07 6.351262211972617e-08 -8.822753939410794e-08 
5.264052810562112 -4.878942282246592e-07 1.369589720106194e-07 4.236891331503159e-07 -2.27451910236797e-07 -2.295050988692532e-07 1.968440851595779e-07 7.354953922373354e-08 -1.017700662226614e-07 
5.27005401080216 -5.656876626877807e-07 1.585805903751206e-07 4.909597281731908e-07 -2.630396109985381e-07 -2.656608571780296e-07 2.272207779326525e-07 8.508554555911693e-08 -1.17266643072048e-07 
5.276055211042208 -6.552311476749672e-07 1.834297329381957e-07 5.683413620602532e-07 -3.038843484382554e-07 -3.072019294049564e-07 2.620125010673331e-07 9.833083791905019e-08 -1.349800377966593e-07 
5.282056411282256 -7.581958197901785e-07 2.119589413140592e-07 6.572638241177692e-07 -3.507141231639711e-07 -3.548817473936874e-07 3.018188654957221e-07 1.135230368710907e-07 -1.552055580327401e-07 
5.288057611522304 -8.764748734195512e-07 2.446798362793223e-07 7.593455885008115e-07 -4.043505484384675e-07 -4.095518983721517e-07 3.473147579515231e-07 1.309304748348058e-07 -1.782746966631944e-07 
5.294058811762352 -1.01221083708812e-06 2.821702112711773e-07 8.764167957548823e-07 -4.657198779238159e-07 -4.721738905475894e-07 3.992589405326489e-07 1.508558398003401e-07 -2.045591361419604e-07 
5.3000600120024 -1.167825899817547e-06 3.250818948786064e-07 1.010544776414146e-06 -5.358651991617602e-07 -5.438321934575511e-07 4.585035222357694e-07 1.736402083371859e-07 -2.344751410203896e-07 
5.306061212242448 -1.346055590516873e-06 3.741494553112125e-07 1.164062365523293e-06 -6.159598994922146e-07 -6.25748674341919e-07 5.260043774430647e-07 1.996675041639194e-07 -2.684883697369597e-07 
5.312062412482496 -1.5499861390444e-06 4.301998255332478e-07 1.339599277514026e-06 -7.07322518955854e-07 -7.192985613795411e-07 6.028325912538893e-07 2.293694213136607e-07 -3.071191384758606e-07 
5.318063612722544 -1.783095874848935e-06 4.941629337620987e-07 1.540116832711488e-06 -8.114331129340826e-07 -8.260280747548651e-07 6.901870166198176e-07 2.632308538375889e-07 -3.509481716602585e-07 
5.324064812962592 -2.049301048087764e-06 5.670834303523213e-07 1.768946349905996e-06 -9.299512558435289e-07 -9.476738771932373e-07 7.894080334454925e-07 3.017958770402999e-07 -4.006228754119194e-07 
5.33006601320264 -2.353006488877718e-06 6.501336087176356e-07 2.029831543932453e-06 -1.064735826111886e-06 -1.086184506833994e-06 9.01992605142002e-07 3.456743284354047e-07 -4.568641720685289e-07 
5.336067213442688 -2.699161552910457e-06 7.446276248811348e-07 2.32697529308034e-06 -1.217866721902914e-06 -1.243743967100817e-06 1.029610733542943e-06 3.955490399458865e-07 -5.204739355902435e-07 
5.342068413682736 -3.09332183609344e-06 8.520371274827794e-07 2.665091168431978e-06 -1.391668666611918e-06 -1.422797660578382e-06 1.1741234185916e-06 4.521837763484209e-07 -5.923430693931384e-07 
5.348069613922784 -3.541717177197215e-06 9.740084176044085e-07 3.049460145910688e-06 -1.5887372729954e-06 -1.626080866809034e-06 1.337602234752694e-06 5.164319385700497e-07 -6.734602698030777e-07 
5.354070814162832 -4.051326505722293e-06 1.112381265584439e-06 3.485992951920523e-06 -1.811967544901592e-06 -1.856649977374561e-06 1.522350641662276e-06 5.892460941837124e-07 -7.649215199115048e-07 
5.36007201440288 -4.62996013236137e-06 1.269209520071692e-06 3.981298524975178e-06 -2.064585005897882e-06 -2.117916715613503e-06 1.730927152068855e-06 6.716884013092109e-07 -8.679403601154482e-07 
5.366073214642928 -5.286350121530372e-06 1.446783652891444e-06 4.542759108635494e-06 -2.350179654607174e-06 -2.413685582826029e-06 1.966170485598127e-06 7.649419960995638e-07 -9.838589830169027e-07 
5.372074414882976 -6.030249429469221e-06 1.64765539184325e-06 5.178612525383191e-06 -2.672742957221776e-06 -2.748194787813503e-06 2.231226842248481e-06 8.703234180690083e-07 -1.11416020161924e-06 
5.378075615123024 -6.872540537351458e-06 1.874664602291678e-06 5.898042216722493e-06 -3.036708098407848e-06 -3.126160932059614e-06 2.529579434746645e-06 9.892961516859505e-07 -1.260480340866583e-06 
5.384076815363072 -7.825354356659007e-06 2.130968587314924e-06 6.711275671778853e-06 -3.446993722585936e-06 -3.552827738749701e-06 2.865080423909232e-06 1.123485366897765e-06 -1.424623103500487e-06 
5.39007801560312 -8.902200233725431e-06 2.420073985204132e-06 7.629691904899202e-06 -3.909051408306581e-06 -4.03401913010324e-06 3.241985405909136e-06 1.274693945558129e-06 -1.608574461930045e-06 
5.396079215843169 -1.011810793176363e-05 2.74587145221477e-06 8.665938682181887e-06 -4.428917129059506e-06 -4.57619697411329e-06 3.664990604773449e-06 1.444919885073298e-06 -1.814518628298038e-06 
5.402080416083217 -1.148978252178902e-05 3.112673327610621e-06 9.834060237392163e-06 -5.013266964277682e-06 -5.186523838690077e-06 4.139272927474851e-06 1.636375174950419e-06 -2.044855155147309e-06 
5.408081616323265 -1.303577316852298e-05 3.52525448715511e-06 1.114963625924988e-05 -5.669477334431804e-06 -5.872931108330444e-06 4.670533042549678e-06 1.851506246295591e-06 -2.302217219017131e-06 
5.414082816563313 -1.47766568534903e-05 3.988896600231048e-06 1.262993297449193e-05 -6.405690043856913e-06 -6.644192835709254e-06 5.265041646206751e-06 2.093016098646397e-06 -2.589491138896726e-06 
5.420084016803361 -1.673523813496104e-05 4.509436014638869e-06 1.429406719427774e-05 -7.230882424201864e-06 -7.510005717932587e-06 5.929689082300714e-06 2.363888212804772e-06 -2.909837180699012e-06 
5.426085217043409 -1.89367661029598e-05 5.093315501758035e-06 1.616318423526472e-05 -8.154942880025879e-06 -8.481075604517014e-06 6.672038484246753e-06 2.667412362530574e-06 -3.266711697758414e-06 
5.432086417283457 -2.140916974707896e-05 5.747640103072185e-06 1.826065067085864e-05 -9.188752145957818e-06 -9.569210961366243e-06 7.500382607860591e-06 3.007212442030808e-06 -3.66389065576715e-06 
5.438087617523505 -2.418331301505958e-05 6.480237326963065e-06 2.061226291254346e-05 -1.034427057184582e-05 -1.0787423731999e-05 8.423804524125307e-06 3.38727643009788e-06 -4.105494588509987e-06 
5.444088817763553 -2.729327090079539e-05 7.29972195207114e-06 2.324647266559714e-05 -1.163463175831246e-05 -1.215003805392223e-05 9.452242339916769e-06 3.811988615473594e-06 -4.596015028202835e-06 
5.450090018003601 -3.077662796128643e-05 8.215565700292891e-06 2.61946303476652e-05 -1.307424286993771e-05 -1.367280730421649e-05 1.059655811266292e-05 4.286164211502747e-06 -5.140342451150394e-06 
5.456091218243649 -3.46748007228075e-05 9.238172048519051e-06 2.949124760232565e-05 -1.467889195675493e-05 -1.537303996396773e-05 1.186861112166421e-05 4.815086491346245e-06 -5.743795775777893e-06 
5.462092418483697 -3.903338549681649e-05 1.037895645338815e-05 3.317428008264759e-05 -1.646586261669024e-05 -1.72697348059963e-05 1.328133565425772e-05 5.404546577902546e-06 -6.412153445827608e-06 
5.468093618723745 -4.390253318552862e-05 1.165043226750147e-05 3.728543172151236e-05 -1.845405633182192e-05 -1.938372592424338e-05 1.484882345905829e-05 6.060886025087801e-06 -7.151686126609249e-06 
5.474094818963793 -4.933735271521583e-05 1.306630262857494e-05 4.18704817457862e-05 -2.066412280969206e-05 -2.173783813601176e-05 1.658641101104632e-05 6.79104232919816e-06 -7.969191036623076e-06 
5.480096019203841 -5.539834479169904e-05 1.46415586047388e-05 4.697963572994787e-05 -2.311859865717202e-05 -2.435705329984575e-05 1.851077172418655e-05 7.602597510667389e-06 -8.872027930605956e-06 
5.486097219443889 -6.215186772671133e-05 1.639258387947621e-05 5.266790202109507e-05 -2.584205470835945e-05 -2.726868810199128e-05 2.064001323644208e-05 8.503829907583297e-06 -9.868156743055919e-06 
5.492098419683937 -6.967063713529483e-05 1.833726625834807e-05 5.899549490096087e-05 -2.886125231945774e-05 -3.050258387290609e-05 2.299377987938832e-05 9.503769322779218e-06 -1.096617689354505e-05 
5.498099619923985 -7.803426135259926e-05 2.049511627650592e-05 6.602826588123512e-05 -3.220530893234019e-05 -3.409130900199301e-05 2.559336043002487e-05 1.061225566611105e-05 -1.21753682466125e-05 
5.504100820164033 -8.732981446278284e-05 2.28873931808623e-05 7.383816455563522e-05 -3.59058731943122e-05 -3.80703745233932e-05 2.846180122572526e-05 1.184000123260523e-05 -1.350573370972013e-05 
5.510102020404081 -9.765244887254999e-05 2.553723855347634e-05 8.250373045532616e-05 -3.999730990422651e-05 -4.247846344808719e-05 3.162402470445754e-05 1.319865675545519e-05 -1.496804344263889e-05 
5.516103220644129 -0.000109106049396526 2.84698178330201e-05 9.211061737293657e-05 -4.45168950343565e-05 -4.735767441748756e-05 3.510695341135759e-05 1.470088137028941e-05 -1.657388064070522e-05 
5.522104420884177 -0.0001218039308504725 3.171246997891507e-05 0.0001027521516340296 -4.950502105305669e-05 -5.27537802509348e-05 3.893963948935376e-05 1.636041662366916e-05 -1.833568884263717e-05 
5.528105621124225 -0.0001358695811705534 3.529486550765296e-05 0.0001145299258029092 -5.500541274501883e-05 -5.871650195380104e-05 4.315339964574731e-05 1.819216465433276e-05 -2.026682070103293e-05 
5.534106821364273 -0.0001514374520917005 3.924917311272714e-05 0.0001275544293115122 -6.106535369362926e-05 -6.529979874402518e-05 4.77819555583737e-05 2.021227067022353e-05 -2.238158814029367e-05 
5.540108021604321 -0.0001686537994248156 4.361023505827619e-05 0.0001419457174952616 -6.773592355333953e-05 -7.25621746426102e-05 5.286157965414733e-05 2.243820983775402e-05 -2.46953138125336e-05 
5.546109221844369 -0.0001876775749702449 4.841575151176135e-05 0.00015783412050754 -7.507224619885449e-05 -8.056700215767138e-05 5.843124615937416e-05 2.488887869201014e-05 -2.722438374708101e-05 
5.552110422084417 -0.0002086813720928267 5.370647395253048e-05 0.0001753609935642775 -8.313374879211175e-05 -8.938286357179498e-05 6.453278728516573e-05 2.758469116762293e-05 -2.998630107346321e-05 
5.558111622324465 -0.0002318524269609711 5.952640776074732e-05 0.0001946795099414057 -9.198443175728425e-05 -9.908391031851698e-05 7.121105437258623e-05 3.054767933977502e-05 -3.299974068133936e-05 
5.564112822564513 -0.0002573936774177836 6.592302405465134e-05 0.0002159554981099979 -0.0001016931495981889 -0.0001097502409054275 7.851408378079644e-05 3.380159895320916e-05 -3.62846046637422e-05 
5.570114022804561 -0.0002855248814052907 7.294748080324272e-05 0.0002393683243461475 -0.0001123339024313625 -0.0001214682978085294 8.649326725744312e-05 3.737203980411349e-05 -3.986207837226393e-05 
5.576115223044609 -0.000316483796802418 8.065485319604005e-05 0.0002651118220944332 -0.0001239861380415208 -0.0001343312837248009 9.520352648390103e-05 4.128654102532724e-05 -4.375468689453011e-05 
5.582116423284657 -0.000350527424462619 8.910437320131473e-05 0.000293395269294532 -0.0001367350641940112 -0.0001484395975272523 0.000104703491438764 4.557471130939607e-05 -4.798635174552341e-05 
5.588117623524705 -0.0003879333161469624 9.835967818897126e-05 0.0003244444147995729 -0.0001506719708610857 -0.000163901290218891 0.0001150556821712602 5.026835408657364e-05 -5.258244754511728e-05 
5.594118823764753 -0.0004290009489421897 0.0001084890684338055 0.0003585025549215963 -0.0001658945619352952 -0.0001808325411287813 0.0001263266935221365 5.540159765588102e-05 -5.756985843465046e-05 
5.600120024004801 -0.0004740531676297783 0.0001195657732490623 0.0003958316610333695 -0.0001825072959139464 -0.0001993581545346228 0.0001385873822731324 6.101103024677625e-05 -6.297703396561071e-05 
