# Energy: -86.50225479129861
# J: 1
# M: 0
# Lmin: 0
# Lmax: 8
# grid size: 5000
# h: 0.006001200240048009
5 0 0 0 0 0 0 0 0 
5.006001200240048 1.603858306848325e-11 -4.709560554800275e-12 -1.419122458405313e-11 8.13343508203885e-12 7.952275560292376e-12 -7.468768915285525e-12 -2.590150069153646e-12 4.083418204626425e-12 
5.012002400480096 3.26952924471903e-11 -9.598903100010095e-12 -2.892644878426996e-11 1.657405018719559e-11 1.620631133586082e-11 -1.521497999018692e-11 -5.277955777723415e-12 8.316034696654194e-12 
5.018003600720144 5.05970411891398e-11 -1.48503368942705e-11 -4.475740458292194e-11 2.563333810691569e-11 2.506818053975116e-11 -2.352000272784458e-11 -8.162495545696981e-12 1.284923396955581e-11 
5.024004800960192 7.040123342549172e-11 -2.065493028055228e-11 -6.226251684383197e-11 3.563759506594871e-11 3.485863704181084e-11 -3.267838642281573e-11 -1.134759229160077e-11 1.784143410722465e-11 
5.03000600120024 9.281875736350585e-11 -2.721911131330395e-11 -8.206698780755082e-11 4.693903023459926e-11 4.592409631496602e-11 -4.300765658723872e-11 -1.494533158994046e-11 2.346322102328176e-11 
5.036007201440288 1.1863770973119e-10 -3.477147390021047e-11 -1.048635176569185e-10 5.992721759649093e-11 5.864796400830846e-11 -5.485841313897568e-11 -1.907969346379897e-11 2.990264835388518e-11 
5.042008401680336 1.487486284509432e-10 -4.357000864698287e-11 -1.314343325738123e-10 7.504125131030812e-11 7.34626714276919e-11 -6.862503740012258e-11 -2.389041091925159e-11 3.737085622160126e-11 
5.048009601920384 1.841720004110961e-10 -5.390997466709999e-11 -1.626751832564355e-10 9.278296098359376e-11 9.086277305083748e-11 -8.475731148820199e-11 -2.95371672620739e-11 4.610816149952679e-11 
5.054010802160432 2.260888266349034e-10 -6.613263268150153e-11 -1.996219899940278e-10 1.137315497216997e-10 1.114194682149293e-10 -1.03773259168018e-10 -3.620424658075416e-11 5.639077558460246e-11 
5.06001200240048 2.758750657216572e-10 -8.063507017812427e-11 -2.434808432446942e-10 1.385600344694345e-10 1.35796926361658e-10 -1.262735309463132e-10 -4.410575726219794e-11 6.853831281657564e-11 
5.066013202640528 3.351408368627703e-10 -9.788136586337812e-11 -2.956621201322148e-10 1.680538944431713e-10 1.647708221509961e-10 -1.529576776837596e-10 -5.349155686606715e-11 8.292226341705779e-11 
5.072014402880576 4.057753454779106e-10 -1.184153629544806e-10 -3.578195468980171e-10 2.031323690834032e-10 1.992495231147803e-10 -1.846426860483129e-10 -6.465401805011486e-11 9.997561911107049e-11 
5.078015603120624 4.899985976703214e-10 -1.428753490410298e-10 -4.318951251764054e-10 2.448728919308248e-10 2.402984183329112e-10 -2.222841857147249e-10 -7.793578951968555e-11 1.202038574412342e-10 
5.084016803360672 5.904210949166294e-10 -1.720109744421378e-10 -5.201709465278563e-10 2.945392013589768e-10 2.891679321269018e-10 -2.670007824706047e-10 -9.37387232450684e-11 1.441975122665292e-10 
5.09001800360072 7.101128488276132e-10 -2.067027814888891e-10 -6.253290459012975e-10 3.536137336003713e-10 3.473258324303458e-10 -3.201020236131382e-10 -1.125341595862811e-10 1.726465831866464e-10 
5.096019203840768 8.526832290370955e-10 -2.479847643774368e-10 -7.505205919124853e-10 4.238349785800862e-10 4.164945199528577e-10 -3.831205626408022e-10 -1.348747856768545e-10 2.063570658371839e-10 
5.102020404080816 1.022373357316949e-09 -2.970704336842432e-10 -8.99445881686104e-10 5.07240565489685e-10 4.986940723167674e-10 -4.57849159813853e-10 -1.614083096883499e-10 2.462699183990249e-10 
5.108021604320864 1.224162990309817e-09 -3.553829219376592e-10 -1.076446802519068e-09 6.06216943724503e-10 5.962919179949415e-10 -5.463832343455061e-10 -1.928932247167608e-10 2.93482817543701e-10 
5.114022804560912 1.463894094658531e-09 -4.245897375304253e-10 -1.286613644122453e-09 7.235566368546356e-10 7.120601292572173e-10 -6.511697735735749e-10 -2.302169713393253e-10 3.49275099727336e-10 
5.12002400480096 1.748413615044769e-09 -5.066428545721823e-10 -1.535908396367543e-09 8.625241739446217e-10 8.492414527482754e-10 -7.750635053394192e-10 -2.744168477714636e-10 4.151363316244835e-10 
5.126025205041008 2.085738271404106e-09 -6.038249169629212e-10 -1.831306951319507e-09 1.026931945174037e-09 1.011625342241505e-09 -9.213913529634038e-10 -3.267040614416709e-10 4.927990069774217e-10 
5.132026405281056 2.485244600471841e-09 -7.188024370704348e-10 -2.180962948266708e-09 1.221227388893647e-09 1.203635422179164e-09 -1.094026318755978e-09 -3.884913661782224e-10 5.842759266848986e-10 
5.138027605521104 2.957887883403421e-09 -8.546869840837656e-10 -2.59439636019029e-09 1.45059309669305e-09 1.430429994629348e-09 -1.297472083149558e-09 -4.614247855954485e-10 6.919028850654547e-10 
5.144028805761153 3.516454080554816e-09 -1.015105485675448e-09 -3.082710323799061e-09 1.721061623635619e-09 1.698017408254113e-09 -1.536959763594321e-09 -5.474199862593181e-10 8.183873584419724e-10 
5.150030006001201 4.175849432160396e-09 -1.20428091044696e-09 -3.658840167417351e-09 2.03964701458667e-09 2.013388337965945e-09 -1.818558451755144e-09 -6.487039344341709e-10 9.668639730819296e-10 
5.156031206241249 4.953432985703916e-09 -1.427124759293408e-09 -4.337839096623401e-09 2.414495306750487e-09 2.384667280521338e-09 -2.149301340811007e-09 -7.67862548350237e-10 1.140957618705139e-09 
5.162032406481297 5.869397983908614e-09 -1.689342972980762e-09 -5.137205562010428e-09 2.855056545556174e-09 2.821285856932583e-09 -2.53732946843751e-09 -9.078951447259363e-10 1.344855171887025e-09 
5.168033606721345 6.947208798743644e-09 -1.997557062701392e-09 -6.077257962674323e-09 3.372281158497027e-09 3.334180830055692e-09 -2.99205533710479e-09 -1.072276574527841e-09 1.583386901425143e-09 
5.174034806961393 8.214100934566505e-09 -2.359442492131138e-09 -7.181563039415248e-09 3.978843872239075e-09 3.93602009803831e-09 -3.524348933517664e-09 -1.2650280495114e-09 1.862118745817325e-09 
5.180036007201441 9.701652556080943e-09 -2.783886585681916e-09 -8.4774250900982e-09 4.689398735281786e-09 4.641460314719668e-09 -4.146748955345795e-09 -1.490797778874347e-09 2.187456782170766e-09 
5.186037207441489 1.144643703348893e-08 -3.281168510521188e-09 -9.996444003627731e-09 5.520869224901201e-09 5.467440220038002e-09 -4.873702367936214e-09 -1.754952665351499e-09 2.566765346900543e-09 
5.192038407681537 1.349076714811204e-08 -3.86316418197968e-09 -1.17751510666148e-08 6.492777876473554e-09 6.433514240738004e-09 -5.721835758677217e-09 -2.063682453326755e-09 3.00850042228778e-09 
5.198039607921585 1.588354287770314e-08 -4.543579275837431e-09 -1.385573255671949e-08 7.627620379230423e-09 7.562231448155844e-09 -6.710262334410178e-09 -2.424117879142572e-09 3.522360070178648e-09 
5.204040808161633 1.868121609335186e-08 -5.338213899497724e-09 -1.628685230814868e-08 8.951289638927017e-09 8.879565539828548e-09 -7.860928820190103e-09 -2.84446454692042e-09 4.119453875661069e-09 
5.210042008401681 2.194888706186767e-08 -6.265262880255046e-09 -1.912458572784112e-08 1.049355591893656e-08 1.041540214963181e-08 -9.199006968304288e-09 -3.334154443104846e-09 4.812493560315663e-09 
5.216043208641729 2.576154937228014e-08 -7.345656075960954e-09 -2.243347916614046e-08 1.228860984127311e-08 1.220409049187539e-08 -1.075333487739626e-08 -3.904017210910484e-09 5.616007137468345e-09 
5.222044408881777 3.020550180705446e-08 -8.603443604820612e-09 -2.628775011460532e-08 1.437567576258363e-08 1.428506711333283e-08 -1.255691385552353e-08 -4.56647353325152e-09 6.546579211643723e-09 
5.228045609121824 3.537994777319909e-08 -1.006623143045138e-08 -3.077264542813395e-08 1.679970384206061e-08 1.670356036888998e-08 -1.464746714079643e-08 -5.335753220996242e-09 7.623120271995238e-09 
5.234046809361872 4.139880521208632e-08 -1.176567332955386e-08 -3.598597666163849e-08 1.961214999356438e-08 1.951138515698084e-08 -1.706806742176701e-08 -6.228140874004176e-09 8.86716809572078e-09 
5.24004800960192 4.839275243701077e-08 -1.37380259166533e-08 -4.203985368670674e-08 2.287185386828648e-08 2.276783845613775e-08 -1.986784077988093e-08 -7.262252276918658e-09 1.030322466318997e-08 
5.246049209841968 5.651153812286146e-08 -1.602477410764895e-08 -4.906264002543726e-08 2.664602605252985e-08 2.65407072999868e-08 -2.310275541103623e-08 -8.459345011704633e-09 1.195913229250811e-08 
5.252050410082016 6.592658671248111e-08 -1.867333517586183e-08 -5.72011558221093e-08 3.101135679333011e-08 3.090740202131228e-08 -2.683650427559693e-08 -9.843667116093103e-09 1.386649302827446e-08 
5.258051610322064 7.683393383015453e-08 -2.173785039561388e-08 -6.662315708453504e-08 3.60552597885927e-08 3.595622889309882e-08 -3.114149167907916e-08 -1.144284799311459e-08 1.606113566805741e-08 
5.264052810562112 8.945752992618998e-08 -2.528007418403365e-08 -7.75201227826147e-08 4.187726590424813e-08 4.178781770268564e-08 -3.609993470213884e-08 -1.328833618350978e-08 1.858363518123443e-08 
5.27005401080216 1.040529543408772e-07 -2.937037164690034e-08 -9.011038460932989e-08 4.859058311486601e-08 4.851672132152481e-08 -4.18050913813733e-08 -1.541588905175812e-08 2.147988966887779e-08 
5.276055211042208 1.209115862955165e-07 -3.408883651424482e-08 -1.046426377075072e-07 5.632384051258428e-08 5.627320598491307e-08 -4.836262859466893e-08 -1.786611990955029e-08 2.48017604307542e-08 
5.282056411282256 1.403652840181927e-07 -3.95265426216504e-08 -1.213998744632622e-07 6.522303589857978e-08 6.520525278106338e-08 -5.58921437291419e-08 -2.068510860954157e-08 2.860778114658318e-08 
5.288057611522304 1.627916283191135e-07 -4.578694335943871e-08 -1.407037875838938e-07 7.545370826817937e-08 7.548079277474435e-08 -6.45288554087563e-08 -2.392508218895422e-08 3.296394264366415e-08 
5.294058811762352 1.88619792472406e-07 -5.298743488005138e-08 -1.629196931346826e-07 8.720335843167915e-08 8.729020026532277e-08 -7.442547983491802e-08 -2.764517272882669e-08 3.794456021188921e-08 
5.3000600120024 2.183371062670856e-07 -6.126110032996031e-08 -1.884620290266876e-07 1.006841430845863e-07 1.008490709103839e-07 -8.575431064897384e-08 -3.191226022218352e-08 4.363323093988433e-08 
5.306061212242448 2.524963885893822e-07 -7.075865396248545e-08 -2.178004896480195e-07 1.161358698598733e-07 1.164013138421878e-07 -9.870952166258228e-08 -3.680190891482794e-08 5.012388908226183e-08 
5.312062412482496 2.917241299226344e-07 -8.165060569820114e-08 -2.514668629364545e-07 1.338293232673713e-07 1.342225894730941e-07 -1.135097133220544e-07 -4.239940629747346e-08 5.752196802719377e-08 
5.318063612722544 3.367296137313394e-07 -9.412966853647052e-08 -2.900626422243973e-07 1.540699539579156e-07 1.546241274357278e-07 -1.304007253773088e-07 -4.88009146890942e-08 6.594567801497997e-08 
5.324064812962592 3.883150738654096e-07 -1.084134331913977e-07 -3.342674916712136e-07 1.772019664483741e-07 1.779569620419305e-07 -1.496587399160018e-07 -5.611474616012673e-08 7.552740936097271e-08 
5.33006601320264 4.473869939126132e-07 -1.247473364344667e-07 -3.848486510561678e-07 2.036128433139975e-07 2.046166257791608e-07 -1.715937006991245e-07 -6.44627724018273e-08 8.641527155884317e-08 
5.336067213442688 5.149686638756995e-07 -1.434079518806406e-07 -4.426713731611761e-07 2.337383469020814e-07 2.350483447014037e-07 -1.965530765958782e-07 -7.398198205584189e-08 9.877477928114311e-08 
5.342068413682736 5.92214119690419e-07 -1.647066343609329e-07 -5.087104949498301e-07 2.680680428506922e-07 2.69752783120972e-07 -2.249259988623077e-07 -8.482619897686899e-08 1.127906969515073e-07 
5.348069613922784 6.80423601966489e-07 -1.889935515885201e-07 -5.840632522710695e-07 3.071513931126467e-07 3.092923887745199e-07 -2.571478040387329e-07 -9.716797591196255e-08 1.28669054234404e-07 
5.354070814162832 7.810606819607378e-07 -2.16662139553214e-07 -6.699634569056361e-07 3.516044697919038e-07 3.542983936273818e-07 -2.937050163534892e-07 -1.112006791430777e-07 1.466393454714192e-07 
5.36007201440288 8.957712152153651e-07 -2.481540209761974e-07 -7.677971644536891e-07 4.02117344900137e-07 4.054785297005947e-07 -3.351408057121152e-07 -1.271407807551637e-07 1.669569267846466e-07 
5.366073214642928 1.026404296549462e-06 -2.83964429228683e-07 -8.791199718546952e-07 4.594622151378587e-07 4.636255237595678e-07 -3.82060959618319e-07 -1.452303763604184e-07 1.899056252643855e-07 
5.372074414882976 1.175035404213319e-06 -3.246481833694909e-07 -1.005676094257169e-06 5.245023249984069e-07 5.296264393964105e-07 -4.35140409711303e-07 -1.65739947329871e-07 2.158005753561528e-07 
5.378075615123024 1.343991936036462e-06 -3.708262633919807e-07 -1.149419382536058e-06 5.982017558847674e-07 6.044729399726052e-07 -4.951303560078237e-07 -1.889713878554614e-07 2.449912982566709e-07 
5.384076815363072 1.53588135635478e-06 -4.231930383942434e-07 -1.312536455008327e-06 6.816361535177615e-07 6.892725510670405e-07 -5.628660344001792e-07 -2.152613184881156e-07 2.77865040815165e-07 
5.39007801560312 1.753622189421515e-06 -4.825242042012756e-07 -1.497472129839803e-06 7.760044706975036e-07 7.8526100649737e-07 -6.39275175475452e-07 -2.449847091682994e-07 3.148503911097419e-07 
5.396079215843169 2.000478112921243e-06 -5.496854909766751e-07 -1.706957358283969e-06 8.826418074546829e-07 8.938157676497374e-07 -7.253872052779021e-07 -2.785588361830871e-07 3.564211885230037e-07 
5.402080416083217 2.280095424143806e-06 -6.256422055659932e-07 -1.944039873259211e-06 1.003033435789177e-06 1.016470811761281e-06 -8.223432412253454e-07 -3.164475989452349e-07 4.031007467701103e-07 
5.408081616323265 2.596544171362673e-06 -7.114696777151993e-07 -2.212117782865935e-06 1.138830101533917e-06 1.154932790947874e-06 -9.314069390001013e-07 -3.591662239918776e-07 4.55466408929398e-07 
5.414082816563313 2.954363264022483e-06 -8.083646839056095e-07 -2.514976354276864e-06 1.291864701393409e-06 1.31109867015112e-06 -1.053976248852871e-06 -4.072863851394506e-07 5.141544540831146e-07 
5.420084016803361 3.358609897494699e-06 -9.176579273400323e-07 -2.856828250007448e-06 1.464170438878254e-06 1.487074958786361e-06 -1.191596142369406e-06 -4.614417703027415e-07 5.798653756859394e-07 
5.426085217043409 3.814913651424607e-06 -1.040827657601156e-06 -3.242357495890273e-06 1.658000568676815e-06 1.685198657698212e-06 -1.345972373339254e-06 -5.223341270844514e-07 6.533695522334336e-07 
5.432086417283457 4.329535645081025e-06 -1.179514518678814e-06 -3.676767478134947e-06 1.875849844958214e-06 1.908060050060274e-06 -1.51898633891592e-06 -5.907398208613361e-07 7.35513331192508e-07 
5.438087617523505 4.909433158640333e-06 -1.335537719422379e-06 -4.165833285646712e-06 2.12047779516964e-06 2.158527472077367e-06 -1.712711109749481e-06 -6.675169407272385e-07 8.27225547472121e-07 
5.444088817763553 5.562330155992743e-06 -1.510912626011356e-06 -4.715958733291482e-06 2.394933947056055e-06 2.439774206745375e-06 -1.929428700185603e-06 -7.536129902945636e-07 9.295244979448825e-07 
5.450090018003601 6.296794172449647e-06 -1.707869881742913e-06 -5.334238422016026e-06 2.702585142869356e-06 2.755307651476416e-06 -2.171648651936901e-06 -8.500732019957266e-07 1.043525393668874e-06 
5.456091218243649 7.122320059648559e-06 -1.928876165299279e-06 -6.028525212637976e-06 3.047145081021959e-06 3.109000918083555e-06 -2.442128006819742e-06 -9.580495151554984e-07 1.170448311493091e-06 
5.462092418483697 8.049421109983269e-06 -2.176656704668364e-06 -6.807503511683483e-06 3.432706231748271e-06 3.505127031414519e-06 -2.743892746186615e-06 -1.078810259714004e-06 1.311626666648602e-06 
5.468093618723745 9.08972811400951e-06 -2.454219670033531e-06 -7.680768789837119e-06 3.863774279636297e-06 3.948395900799846e-06 -3.080260776543964e-06 -1.213750589057227e-06 1.46851622771932e-06 
5.474094818963793 1.02560969364632e-05 -2.764882575206614e-06 -8.658913776338978e-06 4.345305252145926e-06 4.443994246405858e-06 -3.454866542499356e-06 -1.364403706945361e-06 1.642704695039861e-06 
5.480096019203841 1.156272522974204e-05 -3.112300823533466e-06 -9.753621795969676e-06 4.882745499403781e-06 4.997628670522101e-06 -3.8716873495995e-06 -1.532452935006328e-06 1.835921863071281e-06 
5.486097219443889 1.302527893789638e-05 -3.500498540632157e-06 -1.097776773905105e-05 5.482074696615708e-06 5.615572071728105e-06 -4.335071480770664e-06 -1.719744668668143e-06 2.05005038664692e-06 
5.492098419683937 1.466102927929774e-05 -3.933901842807216e-06 -1.234552717909587e-05 6.149852046323811e-06 6.304713607732734e-06 -4.849768190921915e-06 -1.92830227072506e-06 2.28713717014796e-06 
5.498099619923985 1.648900093213878e-05 -4.41737469649258e-06 -1.387249417729261e-05 6.893265863408092e-06 7.072612420416441e-06 -5.420959664785118e-06 -2.160340952952385e-06 2.549405397649828e-06 
5.504100820164033 1.853013218369146e-05 -4.956257530582155e-06 -1.557580833783213e-05 7.720186731142266e-06 7.927555344181522e-06 -6.054295023207534e-06 -2.418283697286973e-06 2.839267220864398e-06 
5.510102020404081 2.080744784172604e-05 -5.556408769978789e-06 -1.74742917030835e-05 8.639224421706277e-06 8.87861882607562e-06 -6.755926462847116e-06 -2.704778269056896e-06 3.159337120277412e-06 
5.516103220644129 2.334624574457371e-05 -6.224249465095054e-06 -1.958859610270846e-05 9.659788779275943e-06 9.935735293241017e-06 -7.532547613508361e-06 -3.022715375556091e-06 3.512445953234505e-06 
5.522104420884177 2.617429774489334e-05 -6.966811198335421e-06 -2.194136159586114e-05 1.079215476809319e-05 1.11097642099962e-05 -8.391434196160022e-06 -3.37524802389831e-06 3.901655700851611e-06 
5.528105621124225 2.932206608115345e-05 -7.791787454738313e-06 -2.455738667053402e-05 1.204753189170439e-05 1.241256807321142e-05 -9.340487062955447e-06 -3.765812132529342e-06 4.330274923506405e-06 
5.534106821364273 3.282293609003259e-05 -8.707588649915051e-06 -2.746381088875682e-05 1.343813819277222e-05 1.385709360052735e-05 -1.038827769829216e-05 -4.19814845100594e-06 4.801874932296571e-06 
5.540108021604321 3.671346625222515e-05 -9.723401014144358e-06 -3.069031069059373e-05 1.497727904544778e-05 1.545745837131295e-05 -1.154409625705942e-05 -4.67632584264258e-06 5.320306681220003e-06 
5.546109221844369 4.103365660335483e-05 -1.084924953691555e-05 -3.426930909356905e-05 1.667943095416252e-05 1.722904318498849e-05 -1.281800221269174e-05 -5.204765984360691e-06 5.88971838193285e-06 
5.552110422084417 4.582723658066935e-05 -1.209606518130953e-05 -3.823620004712432e-05 1.856033057378598e-05 1.918859040537409e-05 -1.422087768343207e-05 -5.78826953752605e-06 6.514573839767411e-06 
5.558111622324465 5.114197341472575e-05 -1.347575658230725e-05 -4.262958822380211e-05 2.063706916632e-05 2.13543085629759e-05 -1.576448350027339e-05 -6.432043842706167e-06 7.199671506237102e-06 
5.564112822564513 5.703000221317564e-05 -1.500128644736254e-05 -4.749154504988361e-05 2.292819270857938e-05 2.37459834895099e-05 -1.746151807435081e-05 -7.141732190095535e-06 7.950164239516151e-06 
5.570114022804561 6.354817892080186e-05 -1.668675288130885e-05 -5.286788179799324e-05 2.545380786356283e-05 2.638509626039272e-05 -1.932567911506558e-05 -7.923444715820381e-06 8.771579760354309e-06 
5.576115223044609 7.075845737590861e-05 -1.854747586082214e-05 -5.880844058251827e-05 2.823569402536157e-05 2.929494822131092e-05 -2.137172824289758e-05 -8.783790972420515e-06 9.669841786570516e-06 
5.582116423284657 7.87282917177821e-05 -2.060008908616991e-05 -6.536740411536946e-05 3.129742164339921e-05 3.250079337421907e-05 -2.361555853267407e-05 -9.729914219491129e-06 1.065129182466467e-05 
5.588117623524705 8.753106543295188e-05 -2.286263743976722e-05 -7.26036250944145e-05 3.466447702646286e-05 3.602997839611582e-05 -2.607426501397791e-05 -1.076952747772792e-05 1.172271159219632e-05 
5.594118823764753 9.724654835911302e-05 -2.535468028206468e-05 -8.05809761096109e-05 3.836439382028131e-05 3.991209056060817e-05 -2.876621814536909e-05 -1.191095138643138e-05 1.289134603940713e-05 
5.600120024004801 0.0001079613829945402 -2.809740081543646e-05 -8.936872096222314e-05 4.242689134424605e-05 4.417911382749726e-05 -3.171114026813374e-05 -1.316315390086805e-05 1.416492693311709e-05 
