# Energy: -111.2717627734214
# J: 1
# M: 0
# Lmin: 0
# Lmax: 8
# grid size: 5000
# h: 0.006001200240048009
5 0 0 0 0 0 0 0 0 
5.006001200240048 1.004654358556356e-11 -2.949188533185205e-12 -8.889302810936287e-12 5.09294736835406e-12 4.981404619249129e-12 -4.676426811880656e-12 -1.622830581118881e-12 2.556721194983227e-12 
5.012002400480096 2.048313799242355e-11 -6.011785606188299e-12 -1.812188497202217e-11 1.037965997038261e-11 1.015324288576581e-11 -9.52785661987472e-12 -3.307306319835644e-12 5.207557792451406e-12 
5.018003600720144 3.170555722892003e-11 -9.30284526784513e-12 -2.804606163079763e-11 1.60567102200082e-11 1.570875632582116e-11 -1.473184670867114e-11 -5.11599823817156e-12 8.048044814609003e-12 
5.024004800960192 4.412911848730638e-11 -1.294303368438679e-11 -3.902725725362628e-11 2.233015527377268e-11 2.185059731347398e-11 -2.04743986498353e-11 -7.114519632581533e-12 1.117822346906344e-11 
5.03000600120024 5.820332552663533e-11 -1.706283125693456e-11 -5.146079728325647e-11 2.942260970020164e-11 2.879782389036343e-11 -2.695619554396994e-11 -9.373768045253359e-12 1.470591080897306e-11 
5.036007201440288 7.44269985054632e-11 -2.180687141749333e-11 -6.578512283942891e-11 3.758054584139581e-11 3.67931257452863e-11 -3.439903982456913e-11 -1.19722427508796e-11 1.875007918174862e-11 
5.042008401680336 9.336438951143013e-11 -2.733855692357597e-11 -8.249586004624579e-11 4.708205391872845e-11 4.611051238158885e-11 -4.305268899755954e-11 -1.49985105403753e-11 2.344444404672871e-11 
5.048009601920384 1.15662777867012e-10 -3.384509292688807e-11 -1.021611711734244e-10 5.824529144852497e-11 5.706369237817158e-11 -5.320228491773417e-11 -1.855389206858181e-11 2.894135857757052e-11 
5.054010802160432 1.420720505256032e-10 -4.154307906876481e-11 -1.254388243515079e-10 7.143785627408692e-11 7.001537776105545e-11 -6.517657623065698e-11 -2.275544273034864e-11 3.541611588091466e-11 
5.06001200240048 1.73466799144539e-10 -5.068480997701062e-11 -1.530954410106507e-10 8.708732889389574e-11 8.538775927080711e-11 -7.935714298746083e-11 -2.773930577065588e-11 4.307176452368311e-11 
5.066013202640528 2.108715059548775e-10 -6.156544458567263e-11 -1.86028414736791e-10 1.056932474200083e-10 1.036744164018971e-10 -9.61888468987909e-11 -3.366452102273413e-11 5.214455028638615e-11 
5.072014402880576 2.554894450542408e-10 -7.45312195824855e-11 -2.252910416849783e-10 1.278408022848244e-10 1.254539503709128e-10 -1.161917501107945e-10 -4.071738026615544e-11 6.291010661898714e-11 
5.078015603120624 3.087359943575971e-10 -8.998890103123138e-11 -2.721214611327539e-10 1.542165677495394e-10 1.514056586822476e-10 -1.399747697662898e-10 -4.911642971838652e-11 7.569052818573804e-11 
5.084016803360672 3.722771366440509e-10 -1.084166909382418e-10 -3.279760755963314e-10 1.856266235241451e-10 1.823276068946731e-10 -1.682513650754741e-10 -5.911823167685384e-11 9.086247620535617e-11 
5.09001800360072 4.48074026754655e-10 -1.303768324408333e-10 -3.94568203841205e-10 2.230174626904884e-10 2.191574968781061e-10 -2.018575883796277e-10 -7.102401091289192e-11 1.088664811219123e-10 
5.096019203840768 5.38434617148252e-10 -1.565301886776614e-10 -4.739128180207962e-10 2.6750013205225e-10 2.629967817398607e-10 -2.417728720555689e-10 -8.518732721970747e-11 1.302176276156625e-10 
5.102020404080816 6.460734671181799e-10 -1.87653106619297e-10 -5.683783292345404e-10 3.203781085585394e-10 3.151385362646434e-10 -2.891439694695837e-10 -1.020229337041855e-10 1.555178292522102e-10 
5.108021604320864 7.741810137018611e-10 -2.246569186273755e-10 -6.807465154053849e-10 3.831794812106185e-10 3.770996588373034e-10 -3.453125210183357e-10 -1.220170011910114e-10 1.854699253761789e-10 
5.114022804560912 9.26503756647558e-10 -2.686104817803295e-10 -8.142818331617165e-10 4.576940826210138e-10 4.506580571991439e-10 -4.118467761391357e-10 -1.457389127141253e-10 2.208938614169955e-10 
5.12002400480096 1.107437007993174e-09 -3.207662086338867e-10 -9.728115232299881e-10 5.460162990151892e-10 5.378955569375964e-10 -4.905780696567142e-10 -1.738548587748194e-10 2.627452458550391e-10 
5.126025205041008 1.322132081410363e-09 -3.825901037306213e-10 -1.160818108801676e-09 6.505943829208617e-10 6.412473693504544e-10 -5.836427266573607e-10 -2.071434941509376e-10 3.121366129919435e-10 
5.132026405281056 1.576620050330592e-09 -4.557963885676332e-10 -1.383546100781546e-09 7.742872001629742e-10 7.635590654033913e-10 -6.935301550186429e-10 -2.465139508848203e-10 3.703617607044328e-10 
5.138027605521104 1.877954490179117e-09 -5.423873746882418e-10 -1.647124965365075e-09 9.204294632722212e-10 9.081521261798029e-10 -8.231379796250378e-10 -2.930265400311113e-10 4.389235768910993e-10 
5.144028805761153 2.234375942321263e-09 -6.446993309803203e-10 -1.958710680918787e-09 1.092906638339997e-09 1.078899278900515e-09 -9.758351780958965e-10 -3.479165172179009e-10 5.195658177294218e-10 
5.150030006001201 2.6555011994608e-09 -7.654551881277526e-10 -2.326648515827469e-09 1.296240863155242e-09 1.280310982797389e-09 -1.155534295551033e-09 -4.126213345123053e-10 6.143093555582677e-10 
5.156031206241249 3.15254091849747e-09 -9.078250315537199e-10 -2.760660000315623e-09 1.535689382711513e-09 1.517634602530892e-09 -1.366773946631139e-09 -4.888118539702516e-10 7.254934746298714e-10 
5.162032406481297 3.738549521938037e-09 -1.075495455296065e-09 -3.272057447063788e-09 1.817357195584056e-09 1.796968000267528e-09 -1.614812957848978e-09 -5.784280571166367e-10 8.558228596038925e-10 
5.168033606721345 4.428711857991357e-09 -1.272748984352015e-09 -3.873989801889497e-09 2.148325813097593e-09 2.125389492955167e-09 -1.905737663631828e-09 -6.837198500156667e-10 1.008420994981435e-09 
5.174034806961393 5.240671658061126e-09 -1.504554923519589e-09 -4.581724081382468e-09 2.536800264634985e-09 2.511106360893913e-09 -2.246584046471804e-09 -8.072936361659098e-10 1.186890774222865e-09 
5.180036007201441 6.194907464577546e-09 -1.776673158160965e-09 -5.412967184101668e-09 2.992276739029236e-09 2.963624359710475e-09 -2.645476606862967e-09 -9.52165409850306e-10 1.39538320561031e-09 
5.186037207441489 7.315162408610529e-09 -2.095772618257926e-09 -6.388233451099459e-09 3.52573353605197e-09 3.493940982798856e-09 -3.111786063695995e-09 -1.121821211495855e-09 1.638675198579344e-09 
5.192038407681537 8.628935002675896e-09 -2.469566323389964e-09 -7.531264005915127e-09 4.149848316043508e-09 4.114765547872143e-09 -3.656308222116824e-09 -1.32028588480776e-09 1.922257519854049e-09 
5.198039607921585 1.016803898737252e-08 -2.90696515474788e-09 -8.869504630018251e-09 4.879244982379201e-09 4.840769542357811e-09 -4.29146660523867e-09 -1.552201183746015e-09 2.252434123896512e-09 
5.204040808161633 1.196924123939741e-08 -3.418252753048263e-09 -1.043464973370855e-08 5.730773913569046e-09 5.688871061045579e-09 -5.031541730321163e-09 -1.822914396668162e-09 2.636434187567211e-09 
5.210042008401681 1.407498782216697e-08 -4.015284220435581e-09 -1.22632608719307e-08 6.723829682361198e-09 6.67855760895635e-09 -5.892930220977498e-09 -2.138578786082378e-09 3.082538315144617e-09 
5.216043208641729 1.653422944852112e-08 -4.71171161250298e-09 -1.439746923710996e-08 7.880710861471621e-09 7.832252026355498e-09 -6.894437286608287e-09 -2.506267286405777e-09 3.600220527642912e-09 
5.222044408881777 1.940335893833319e-08 -5.523239545944962e-09 -1.688577264528495e-08 9.227027022889695e-09 9.175726824920122e-09 -8.057606470640421e-09 -2.934101059923615e-09 4.200307810378365e-09 
5.228045609121824 2.27472747035999e-08 -6.467914620758344e-09 -1.978393872641441e-08 1.079215859370448e-08 1.073857280825345e-08 -9.407090972399198e-09 -3.431394683869413e-09 4.895159165655801e-09 
5.234046809361872 2.664058589185524e-08 -7.56645276618598e-09 -2.315602734427339e-08 1.260977583984583e-08 1.25547284904185e-08 -1.097107128576549e-08 -4.008819930321121e-09 5.698866303966167e-09 
5.24004800960192 3.116897657849604e-08 -8.842609069782146e-09 -2.707554671595887e-08 1.471842391401959e-08 1.466307752737432e-08 -1.278172437343532e-08 -4.678590306614228e-09 6.627478307889036e-09 
5.246049209841968 3.643074833365891e-08 -1.032359514228143e-08 -3.162675928646611e-08 1.716218162961338e-08 1.710812214281449e-08 -1.487575011093367e-08 -5.454668748440583e-09 7.699252818654348e-09 
5.252050410082016 4.253856261438491e-08 -1.204054961076938e-08 -3.690615515150144e-08 1.999140241282468e-08 1.994074136684191e-08 -1.729496129191447e-08 -6.353001102012144e-09 8.934936526691398e-09 
5.258051610322064 4.962140676362583e-08 -1.402906792256479e-08 -4.302411272376046e-08 2.326354674526806e-08 2.321904381831612e-08 -2.008694408811497e-08 -7.391778296949957e-09 1.035807799511102e-08 
5.264052810562112 5.782680995082069e-08 -1.632979828599927e-08 -5.010676841710507e-08 2.704411634358562e-08 2.700932575496258e-08 -2.330579650606463e-08 -8.591730399281002e-09 1.199537610952548e-08 
5.27005401080216 6.73233381819295e-08 -1.898911127587539e-08 -5.829811939288961e-08 3.140770133601409e-08 3.138714619505094e-08 -2.701295308071857e-08 -9.976456045499929e-09 1.387706772946266e-08 
5.276055211042208 7.830340055858365e-08 -2.205985139494237e-08 -6.776238588728751e-08 3.643915279351428e-08 3.643853208646188e-08 -3.127810479603338e-08 -1.157279109552444e-08 1.603735841637573e-08 
5.282056411282256 9.09864022960561e-08 -2.560217971257427e-08 -7.868666233271391e-08 4.223489416014674e-08 4.226132776931422e-08 -3.618022402653788e-08 -1.341122070601574e-08 1.851490043132251e-08 
5.288057611522304 1.05622283638762e-07 -2.968451760247374e-08 -9.128388941589523e-08 4.890438640921268e-08 4.89667043532555e-08 -4.180870515453303e-08 -1.55263394174449e-08 2.13533225321459e-08 
5.294058811762352 1.224954877617079e-07 -3.438460257733369e-08 -1.057961823960448e-07 5.657176313371441e-08 5.668084611645033e-08 -4.826463243697888e-08 -1.79573642699727e-08 2.460181645570064e-08 
5.3000600120024 1.419294050394928e-07 -3.979066827481273e-08 -1.224985544558741e-07 6.537765326743843e-08 6.554683263681616e-08 -5.566218767657283e-08 -2.074870641618902e-08 2.831578534550437e-08 
5.306061212242448 1.642913457249442e-07 -4.600276179091702e-08 -1.417030775933806e-07 7.548121073202058e-08 7.57267370938728e-08 -6.413021129507241e-08 -2.395060718454016e-08 3.255755977919583e-08 
5.312062412482496 1.899980981320973e-07 -5.313421278907169e-08 -1.63763527601673e-07 8.706237202131196e-08 8.740396303852907e-08 -7.381393151545923e-08 -2.761984506735093e-08 3.739718746327605e-08 
5.318063612722544 2.19522134888826e-07 -6.131327014108062e-08 -1.890805640463197e-07 1.003243645728351e-07 1.007858439251363e-07 -8.487687753481346e-08 -3.182052066319242e-08 4.291330309455898e-08 
5.324064812962592 2.533985357398603e-07 -7.068492328519644e-08 -2.181075008541391e-07 1.154964907426559e-07 1.16106531842156e-07 -9.75029938132466e-08 -3.662492719637741e-08 4.919408533817553e-08 
5.33006601320264 2.922327017689032e-07 -8.141292702211976e-08 -2.513567281938109e-07 1.328372143000669e-07 1.336302041717921e-07 -1.118989739171659e-07 -4.211451486795115e-08 5.633830834028339e-08 
5.336067213442688 3.367089427977599e-07 -9.368205011746413e-08 -2.894068517774363e-07 1.526375785974133e-07 1.536546193618451e-07 -1.282968337384343e-07 -4.838095796398075e-08 6.445649567906098e-08 
5.342068413682736 3.876000271402864e-07 -1.077005698446383e-07 -3.329106215638029e-07 1.752249879533485e-07 1.76515055611716e-07 -1.469567453652244e-07 -5.552733435942829e-08 7.367218515912809e-08 
5.348069613922784 4.457777908697583e-07 -1.237030364908053e-07 -3.82603728119524e-07 2.009673863196852e-07 2.025886690656226e-07 -1.681701544057247e-07 -6.36694278105175e-08 8.412331337100648e-08 
5.354070814162832 5.122249123308741e-07 -1.419533338661499e-07 -4.393145516145349e-07 2.302778699874189e-07 2.32299311076202e-07 -1.922632051621044e-07 -7.293716422622589e-08 9.596372946715059e-08 
5.36007201440288 5.880479668235025e-07 -1.627480640086475e-07 -5.039749556147781e-07 2.636197739306861e-07 2.661228472570016e-07 -2.196004997185077e-07 -8.347619395116062e-08 1.093648481476964e-07 
5.366073214642928 6.744918862363845e-07 -1.864202865682787e-07 -5.776322255085017e-07 3.015122743921738e-07 3.045930243888447e-07 -2.505892187420788e-07 -9.544963297823466e-08 1.245174524003681e-07 
5.372074414882976 7.729559589475795e-07 -2.133436457914814e-07 -6.614622595844233e-07 3.445365534831315e-07 3.48307934788184e-07 -2.856836335982276e-07 -1.090399769406753e-07 1.416336570976222e-07 
5.378075615123024 8.850115165669528e-07 -2.439369206136405e-07 -7.567841294908106e-07 3.93342574908338e-07 3.979371314903775e-07 -3.253900412480206e-07 -1.244512027091703e-07 1.60949045117442e-07 
5.384076815363072 1.012421466106915e-06 -2.786690361094567e-07 -8.65076136064581e-07 4.48656523433178e-07 4.54229451551782e-07 -3.702721553234876e-07 -1.41911073441323e-07 1.827249882192435e-07 
5.39007801560312 1.157161838963322e-06 -3.180645774526536e-07 -9.879934963485484e-07 5.112889643876676e-07 5.180216089354743e-07 -4.209569887618446e-07 -1.616736639967146e-07 2.072511654697685e-07 
5.396079215843169 1.321445541700898e-06 -3.627098506018806e-07 -1.127387808031832e-06 5.821437833512266e-07 5.902476228192855e-07 -4.781412654173158e-07 -1.84022124741093e-07 2.348482925719384e-07 
5.402080416083217 1.50774850809826e-06 -4.132595371626397e-07 -1.28532844857113e-06 6.622279701817207e-07 6.719491517539031e-07 -5.425984001537638e-07 -2.092717029165323e-07 2.658710759983359e-07 
5.408081616323265 1.718838467247231e-06 -4.704439942788915e-07 -1.464126077895864e-06 7.526623157411882e-07 7.642868089042651e-07 -6.151860890461729e-07 -2.377730419494463e-07 3.00711406365817e-07 
5.414082816563313 1.957806558749494e-06 -5.350772539854311e-07 -1.666358425883408e-06 8.546930940259675e-07 8.685525386294541e-07 -6.96854553476566e-07 -2.699157803033272e-07 3.398018060038763e-07 
5.420084016803361 2.228102043238822e-06 -6.080657802052739e-07 -1.894898558725632e-06 9.697048069266996e-07 9.861831398938363e-07 -7.886554840916866e-07 -3.061324727557787e-07 3.836191461615458e-07 
5.426085217043409 2.53357037460641e-06 -6.904180455065536e-07 -2.152945831906474e-06 1.099234073518533e-06 1.118775027452868e-06 -8.917517327860276e-07 -3.469028582871277e-07 4.326886497601563e-07 
5.432086417283457 2.878494919444783e-06 -7.832549938414015e-07 -2.444059751782199e-06 1.24498475060687e-06 1.268100327417109e-06 -1.007427803073856e-06 -3.927585001074263e-07 4.875881960261576e-07 
5.438087617523505 3.267642629375424e-06 -8.878214597746923e-07 -2.77219698270859e-06 1.408844376220876e-06 1.436124409662182e-06 -1.137101191405758e-06 -4.442878247162742e-07 5.489529437229481e-07 
5.444088817763553 3.70631399310682e-06 -1.005498619172185e-06 -3.141751752297289e-06 1.592902032845514e-06 1.625024965613729e-06 -1.282334634155887e-06 -5.021415882812525e-07 6.174802900364826e-07 
5.450090018003601 4.200397617300585e-06 -1.137817550953078e-06 -3.557599923708596e-06 1.799467732401141e-06 1.837212746186076e-06 -1.444849317141065e-06 -5.670388000310031e-07 6.939351824490164e-07 
5.456091218243649 4.75642980861746e-06 -1.286473994318e-06 -4.025147020898682e-06 2.03109343030378e-06 2.075354081080546e-06 -1.626539106616654e-06 -6.397731337825095e-07 7.791558011512486e-07 
5.462092418483697 5.381659553683609e-06 -1.453344390835181e-06 -4.550380510430015e-06 2.290595781353428e-06 2.342395307241492e-06 -1.82948586270968e-06 -7.212198601528037e-07 8.740596296872883e-07 
5.468093618723745 6.084119319166211e-06 -1.640503305899005e-06 -5.139926661816178e-06 2.581080755683717e-06 2.641589241010007e-06 -2.055975898178919e-06 -8.123433334361841e-07 9.796499315911202e-07 
5.474094818963793 6.872702120678904e-06 -1.850242329358853e-06 -5.801112327392529e-06 2.905970238544072e-06 2.976523835389904e-06 -2.308517647214961e-06 -9.142050685515303e-07 1.097022650749052e-06 
5.480096019203841 7.757245336848602e-06 -2.085090560543026e-06 -6.542032002364643e-06 3.269030743252356e-06 3.351153170827969e-06 -2.589860610689934e-06 -1.027972444872102e-06 1.227373753101135e-06 
5.486097219443889 8.748621773557962e-06 -2.347836788462062e-06 -7.371620545964302e-06 3.674404372226915e-06 3.769830934988538e-06 -2.903015645814364e-06 -1.154928075133175e-06 1.372007027066823e-06 
5.492098419683937 9.858838513118138e-06 -2.641553483655367e-06 -8.299731965510237e-06 4.126642166554443e-06 4.23734655414656e-06 -3.251276669534352e-06 -1.296479878961253e-06 1.532342359736929e-06 
5.498099619923985 1.110114411390446e-05 -2.969622723930768e-06 -9.337224686594195e-06 4.63073999004396e-06 4.758964146004909e-06 -3.638243846181123e-06 -1.454171901871656e-06 1.709924505405946e-06 
5.504100820164033 1.249014475777666e-05 -3.335764182121997e-06 -1.049605375455249e-05 5.192177099124801e-06 5.340464470931335e-06 -4.067848330841396e-06 -1.629695921827676e-06 1.906432362416748e-06 
5.510102020404081 1.404192997537083e-05 -3.744065309936203e-06 -1.178937043479424e-05 5.816957555232382e-06 5.988190065774106e-06 -4.544378640623839e-06 -1.824903886631992e-06 2.12368877354401e-06 
5.516103220644129 1.577420861305178e-05 -4.199013857962344e-06 -1.323162970238664e-05 6.511654641451491e-06 6.709093751516074e-06 -5.072508726426256e-06 -2.041821226516612e-06 2.363670864244236e-06 
5.522104420884177 1.770645573990203e-05 -4.705532877938635e-06 -1.483870613448676e-05 7.283458450111699e-06 7.510790713026218e-06 -5.6573278179313e-06 -2.282661087297611e-06 2.628520932039776e-06 
5.528105621124225 1.986007122853823e-05 -5.269018359409421e-06 -1.662801874269218e-05 8.140226812710054e-06 8.401614356021716e-06 -6.304372114345194e-06 -2.549839530350636e-06 2.920557899072713e-06 
5.534106821364273 2.225855077972358e-05 -5.895379658911103e-06 -1.861866530608523e-05 9.09053974792556e-06 9.390676153016943e-06 -7.019658392814013e-06 -2.845991746427431e-06 3.242289338453238e-06 
5.540108021604321 2.492767019760471e-05 -6.591082885783981e-06 -2.083156678958743e-05 1.014375760753891e-05 1.048792969645938e-05 -7.809719605474077e-06 -3.173989330956488e-06 3.596424083427975e-06 
5.546109221844369 2.78956837598625e-05 -7.36319741458062e-06 -2.328962245613134e-05 1.131008310372771e-05 1.170423918338353e-05 -8.681642534685479e-06 -3.536958668935548e-06 3.9858854265986e-06 
5.552110422084417 3.119353756502832e-05 -8.219445699796742e-06 -2.601787630500097e-05 1.260062740441739e-05 1.305145256169754e-05 -9.643107574128176e-06 -3.938300477812919e-06 4.413824914422926e-06 
5.558111622324465 3.485509877757658e-05 -9.168256574251397e-06 -2.904369549238237e-05 1.402748048607422e-05 1.454247957359437e-05 -1.070243070107714e-05 -4.381710556850405e-06 4.883636740022791e-06 
5.564112822564513 3.891740173004034e-05 -1.021882221785002e-05 -3.239696141358896e-05 1.560378593546912e-05 1.619137493648787e-05 -1.186860770228385e-05 -4.871201791344821e-06 5.398972734899503e-06 
5.570114022804561 4.342091188018382e-05 -1.13811589886343e-05 -3.611027414946066e-05 1.734382039345861e-05 1.801342690625037e-05 -1.315136071244435e-05 -5.411127459738282e-06 5.96375795751382e-06 
5.576115223044609 4.840980866006189e-05 -1.266617231291407e-05 -4.021917100194799e-05 1.926307783465671e-05 2.00252514713037e-05 -1.456118712019829e-05 -6.006205891051019e-06 6.582206873818796e-06 
5.582116423284657 5.393228829244963e-05 -1.40857258358396e-05 -4.476235986574558e-05 2.137835887694483e-05 2.224489242921939e-05 -1.610941089194693e-05 -6.661546519204408e-06 7.258840121738177e-06 
5.588117623524705 6.004088768847187e-05 -1.565271503796e-05 -4.97819682038829e-05 2.370786531401602e-05 2.469192759984481e-05 -1.780823635847291e-05 -7.382677379646412e-06 7.998501848257941e-06 
5.594118823764753 6.679283057813027e-05 -1.738114552707377e-05 -5.532380841525603e-05 2.627130006250743e-05 2.738758143051221e-05 -1.967080450336086e-05 -8.175574092227045e-06 8.806377604244398e-06 
5.600120024004801 7.42503970626186e-05 -1.928621621795423e-05 -6.143766040103228e-05 2.908997271267032e-05 3.03548442495317e-05 -2.171125178552951e-05 -9.046690372478033e-06 9.688012778319275e-06 
