# Energy: -132.3880155049156
# J: 1
# M: 0
# Lmin: 0
# Lmax: 8
# grid size: 5000
# h: 0.006001200240048009
5 0 0 0 0 0 0 0 0 
5.006001200240048 9.650129960919933e-13 -2.830696072400387e-13 -8.539423423935655e-13 4.888532634560539e-13 4.78676996302162e-13 -4.489202249083528e-13 -1.560543176621111e-13 2.454861489330038e-13 
5.012002400480096 1.967726120762268e-12 -5.770903048666146e-13 -1.741069134215633e-12 9.964187954751147e-13 9.75770781067181e-13 -9.147440642184808e-13 -3.18075947643065e-13 5.00065921214211e-13 
5.018003600720144 3.046407316807827e-12 -8.931761838403704e-13 -2.695064520721597e-12 1.541686931206987e-12 1.509976867716614e-12 -1.414628087636171e-12 -4.921241943446513e-13 7.729734214552088e-13 
5.024004800960192 4.241238336926744e-12 -1.242990193751359e-12 -3.75128851364407e-12 2.144575759355425e-12 2.100913142000814e-12 -1.966555090342534e-12 -6.845569256323149e-13 1.073883826532869e-12 
5.03000600120024 5.595741182840583e-12 -1.639152973470901e-12 -4.948023335878588e-12 2.826619351464793e-12 2.769801822026335e-12 -2.589941242409403e-12 -9.022494383740059e-13 1.413231846887792e-12 
5.036007201440288 7.158253631094474e-12 -2.095665446732126e-12 -6.327762473123125e-12 3.611678930163221e-12 3.540174774086184e-12 -3.306263445262363e-12 -1.152820964632413e-12 1.802541233690936e-12 
5.042008401680336 8.983502857197913e-12 -2.628358985115035e-12 -7.938584816774515e-12 4.526699728450021e-12 4.438624894639135e-12 -4.139726260731756e-12 -1.444875986303201e-12 2.254775016560442e-12 
5.048009601920384 1.113432576226391e-11 -3.255386816362072e-12 -9.835655937092013e-12 5.602536092410751e-12 5.495626106747315e-12 -5.11798764130047e-12 -1.788267490375919e-12 2.784716157974578e-12 
5.054010802160432 1.368358581875634e-11 -3.997770677107651e-12 -1.208289956076562e-11 6.874867892738133e-12 6.746445073107848e-12 -6.272963126045233e-12 -2.194389480851508e-12 3.409388567777559e-12 
5.06001200240048 1.671633895445759e-11 -4.880017440063569e-12 -1.4754884632842e-11 8.385232479639741e-12 8.232168942678801e-12 -7.641729132793522e-12 -2.67650645072622e-12 4.14852892142877e-12 
5.066013202640528 2.033230511455437e-11 -5.930821566087275e-12 -1.793897685829785e-11 1.01821982084383e-11 1.000087529290755e-11 -9.267547448024667e-12 -3.250128099447972e-12 5.025120461606895e-12 
5.072014402880576 2.464870765758585e-11 -7.183870733975771e-12 -2.173780832285162e-11 1.232270796669044e-11 1.21089728939647e-11 -1.12010349816931e-11 -3.933438354918679e-12 6.066000932241801e-12 
5.078015603120624 2.980354967016784e-11 -8.678773888964176e-12 -2.627212470004775e-11 1.487362415231259e-11 1.462274501171938e-11 -1.350150531685396e-11 -4.747788726631037e-12 7.302557999493717e-12 
5.084016803360672 3.595940468261022e-11 -1.046213323816166e-11 -3.168407670691399e-11 1.791351020529176e-11 1.762013070423668e-11 -1.623851155732097e-11 -5.718267184585182e-12 8.771526962447372e-12 
5.09001800360072 4.33078092204374e-11 -1.258878442966271e-11 -3.814103094579691e-11 2.153468811576012e-11 2.11927839878542e-11 -1.949362348420045e-11 -6.874355138010528e-12 1.05159072581755e-11 
5.096019203840768 5.207435625375413e-11 -1.512323231204422e-11 -4.583998516313899e-11 2.584561636354886e-11 2.544845590165884e-11 -2.336247610682392e-11 -8.250686693187939e-12 1.258601623595662e-11 
5.102020404080816 6.252460205514272e-11 -1.814131332030463e-11 -5.50126843892389e-11 3.097363854548019e-11 3.05137504438151e-11 -2.795713137674126e-11 -9.887926218993889e-12 1.504070093197625e-11 
5.108021604320864 7.497091442403594e-11 -2.173211971841893e-11 -6.593154754266794e-11 3.706815958454089e-11 3.65373121618655e-11 -3.34088001746508e-11 -1.183378236383152e-11 1.794873114038855e-11 
5.114022804560912 8.978040788709756e-11 -2.600022570044399e-11 -7.891652905923876e-11 4.430431396876277e-11 4.369351093575439e-11 -3.987097773704966e-11 -1.414417907349794e-11 2.139039997406337e-11 
5.12002400480096 1.073841315756832e-10 -3.106826077195961e-11 -9.434305713296836e-11 5.288719902734672e-11 5.218669829271067e-11 -4.752305252751935e-11 -1.688460688487248e-11 2.545936136682948e-11 
5.126025205041008 1.282876982795372e-10 -3.707988196983064e-11 -1.126512094553925e-10 6.30567559189249e-11 6.225611954525486e-11 -5.65744562503853e-11 -2.013168084726681e-11 3.026473761988266e-11 
5.132026405281056 1.530835689796204e-10 -4.420320340719259e-11 -1.3435630915642e-10 7.509339189522128e-11 7.41815772680954e-11 -6.726943133351383e-11 -2.397493488768951e-11 3.593353417277003e-11 
5.138027605521104 1.824652363058821e-10 -5.263474943710257e-11 -1.600611482591188e-10 8.932444963828956e-11 8.828995426039691e-11 -7.989250186193124e-11 -2.851888632778913e-11 4.261340332167952e-11 
5.144028805761153 2.17243583218016e-10 -6.260400650633295e-11 -1.904700736664068e-10 1.061316431892616e-10 1.049627183245642e-10 -9.477474472288836e-11 -3.38854086224669e-11 5.04758036555246e-11 
5.150030006001201 2.583657301779615e-10 -7.437865862372826e-11 -2.264052018350605e-10 1.259595953427599e-10 1.246445470936531e-10 -1.12300969732712e-10 -4.021645527087058e-11 5.971960757758672e-11 
5.156031206241249 3.069367256231485e-10 -8.827060240888499e-11 -2.688250632306963e-10 1.493256285394774e-10 1.478532289346428e-10 -1.329179308719748e-10 -4.767718330183228e-11 7.057521547452693e-11 
5.162032406481297 3.64244481154936e-10 -1.04642850040875e-10 -3.18846016801102e-10 1.768309804303006e-10 1.751910158382648e-10 -1.571437055830479e-10 -5.645953081451536e-11 8.330924193588121e-11 
5.168033606721345 4.317884050710849e-10 -1.239174422289178e-10 -3.777668184972719e-10 2.091736366046752e-10 2.073576263893975e-10 -1.855783955173493e-10 -6.678630982260654e-11 9.82298469693778e-11 
5.174034806961393 5.113122462893119e-10 -1.465845087250276e-10 -4.470967767951338e-10 2.471629966858642e-10 2.451651216249736e-10 -2.18916320302633e-10 -7.891588317338429e-11 1.156927934574139e-10 
5.180036007201441 6.048417259808766e-10 -1.732126310532109e-10 -5.285879827528661e-10 2.917366163256322e-10 2.895549040780114e-10 -2.579598959875742e-10 -9.314750266323037e-11 1.361083212177658e-10 
5.186037207441489 7.14727607067176e-10 -2.044606812148958e-10 -6.242721629515974e-10 3.439792968278541e-10 3.41617120846174e-10 -3.036354119759567e-10 -1.098273947259395e-10 1.599489380301178e-10 
5.192038407681537 8.436949328993682e-10 -2.410913313343419e-10 -7.365027713326794e-10 4.051448264604763e-10 4.026127854020321e-10 -3.570109446605951e-10 -1.29355690312559e-10 1.877582389352518e-10 
5.198039607921585 9.948992567787399e-10 -2.83986452734414e-10 -8.680030111359324e-10 4.76680713263432e-10 4.739989703931933e-10 -4.19316672792906e-10 -1.521943069004303e-10 2.201608770745434e-10 
5.204040808161633 1.171990784392156e-09 -3.341646490018005e-10 -1.021920561588566e-09 5.602562886320965e-10 5.574574652004382e-10 -4.919678890734734e-10 -1.788759030597076e-10 2.57873822385179e-10 
5.210042008401681 1.379187462716042e-09 -3.928011964477426e-10 -1.20188987647975e-09 6.57794604478093e-10 6.549273378922786e-10 -5.765910347283131e-10 -2.10014039769371e-10 3.017190586750854e-10 
5.216043208641729 1.621358172546882e-09 -4.612506972493919e-10 -1.412103024128255e-09 7.715085946897465e-10 7.686418918217015e-10 -6.750531191616011e-10 -2.463146978195304e-10 3.5263788504691e-10 
5.222044408881777 1.904117318693438e-09 -5.410727857400301e-10 -1.65739015142105e-09 9.039420243034286e-10 9.011705628686152e-10 -7.89494925375471e-10 -2.885893172772614e-10 4.117070044002983e-10 
5.228045609121824 2.23393226325158e-09 -6.340612670946923e-10 -1.943310779547821e-09 1.058015807647296e-09 1.055466364680324e-09 -9.223684439581082e-10 -3.377695432506038e-10 4.801565998953624e-10 
5.234046809361872 2.618245214605678e-09 -7.422771103420572e-10 -2.276257276828016e-09 1.237080340146403e-09 1.234919556671109e-09 -1.076479024309541e-09 -3.949238821878737e-10 5.593906198877636e-10 
5.24004800960192 3.065611369288264e-09 -8.680857645551039e-10 -2.663572005745458e-09 1.444974557922113e-09 1.443418283508421e-09 -1.255032781655976e-09 -4.612764948320509e-10 6.510095130278824e-10 
5.246049209841968 3.585855307111227e-09 -1.014199318584372e-09 -3.113679808168056e-09 1.686092515241987e-09 1.685417015864737e-09 -1.461689852562346e-09 -5.382283758545765e-10 7.568356780334716e-10 
5.252050410082016 4.190247863693967e-09 -1.183724081172683e-09 -3.636237676013521e-09 1.965458352765105e-09 1.966013710908104e-09 -1.700624150360762e-09 -6.273811962680039e-10 8.789419171766702e-10 
5.258051610322064 4.891705950404377e-09 -1.380214220125021e-09 -4.242303655684311e-09 2.288810619891619e-09 2.291036707928604e-09 -1.976590335448062e-09 -7.305641131177927e-10 1.019683208850221e-09 
5.264052810562112 5.705018061661127e-09 -1.607732166820596e-09 -4.944527254877909e-09 2.662697012897055e-09 2.667142480270688e-09 -2.294998784052138e-09 -8.498638818418653e-10 1.181732142769827e-09 
5.27005401080216 6.647098505503944e-09 -1.870916566187335e-09 -5.757363861410173e-09 3.094580697465949e-09 3.101925480011613e-09 -2.661999413112043e-09 -9.876586402300596e-10 1.368118391501944e-09 
5.276055211042208 7.737273717429342e-09 -2.175058632776674e-09 -6.697315947085062e-09 3.59295950031281e-09 3.6040414372731e-09 -3.08457529865113e-09 -1.146655769288041e-09 1.582272624146829e-09 
5.282056411282256 8.997604371947258e-09 -2.526187861265932e-09 -7.783204117108954e-09 4.167499380387579e-09 4.183345612385955e-09 -3.570647110735995e-09 -1.329934275690483e-09 1.82807530221758e-09 
5.288057611522304 1.045324739350389e-08 -2.931168135087117e-09 -9.036471378876865e-09 4.829183726324093e-09 4.851047647084012e-09 -4.12918948009626e-09 -1.540992183080223e-09 2.109910834092929e-09 
5.294058811762352 1.213286239083552e-08 -3.397805380467839e-09 -1.048152434503831e-08 5.59048017393644e-09 5.619884821250544e-09 -4.770360510016763e-09 -1.783799465421595e-09 2.432727602932138e-09 
5.3000600120024 1.406906749910065e-08 -3.934968025526832e-09 -1.21461154565592e-08 6.465526796348795e-09 6.504315695270367e-09 -5.505645752483191e-09 -2.062857105138599e-09 2.80210442366284e-09 
5.306061212242448 1.629895011505467e-08 -4.552721645770467e-09 -1.406177071410194e-08 7.47033969042073e-09 7.520736305572162e-09 -6.348018080035151e-09 -2.383262912055876e-09 3.22432402761407e-09 
5.312062412482496 1.886463855498972e-08 -5.262479308984185e-09 -1.626426784260775e-08 8.623044167173797e-09 8.687721283319556e-09 -7.312115004614737e-09 -2.750784796408115e-09 3.706454218582122e-09 
5.318063612722544 2.181394125621244e-08 -6.077169274720742e-09 -1.879417028672808e-08 9.944131951615884e-09 1.002629248428716e-08 -8.414435122135838e-09 -3.171942250587163e-09 4.256437391586554e-09 
5.324064812962592 2.520106078365643e-08 -7.011421856989798e-09 -2.169742294604975e-08 1.145674700937931e-08 1.156021795261931e-08 -9.673555496763449e-09 -3.654096860050852e-09 4.883189155282368e-09 
5.33006601320264 2.908739059715153e-08 -8.081777424001389e-09 -2.502601611130465e-08 1.318700284461873e-08 1.331634429330737e-08 -1.11103719421819e-08 -4.205552734115854e-09 5.596706850909184e-09 
5.336067213442688 3.354240328535268e-08 -9.306917686574045e-09 -2.883872465844121e-08 1.516433435633204e-08 1.532496579874065e-08 -1.274836430862026e-08 -4.8356678223874e-09 6.408188814726152e-09 
5.342068413682736 3.864463978295723e-08 -1.070792261776338e-08 -3.320193019912987e-08 1.742188759933889e-08 1.762023396449654e-08 -1.46138890442315e-08 -5.554977162524559e-09 7.330165287027957e-09 
5.348069613922784 4.448280996232945e-08 -1.23085555510846e-08 -3.819053457660809e-08 1.999695107222458e-08 2.02406113395492e-08 -1.67365014676934e-08 -6.375329190076393e-09 8.376641928964892e-09 
5.354070814162832 5.115701593284154e-08 -1.413557922408483e-08 -4.388897383743756e-08 2.293143244826593e-08 2.322937398719882e-08 -1.914931036567732e-08 -7.310036331417516e-09 9.56325696837448e-09 
5.36007201440288 5.87801103950822e-08 -1.621910576866221e-08 -5.039234260548685e-08 2.627238497729417e-08 2.663516718615515e-08 -2.188936771412923e-08 -8.374041196515475e-09 1.090745305752245e-08 
5.366073214642928 6.747920348664184e-08 -1.859298390012252e-08 -5.780763963705839e-08 3.007258811718695e-08 3.051261937722656e-08 -2.499809651608893e-08 -9.584099789516552e-09 1.242866498886544e-08 
5.372074414882976 7.739733272560573e-08 -2.129522682419705e-08 -6.625514624836031e-08 3.439118730373695e-08 3.492301976083161e-08 -2.852175995094346e-08 -1.095898326206411e-08 1.414852447947368e-08 
5.378075615123024 8.869531191142183e-08 -2.436848466579596e-08 -7.586995028131813e-08 3.929439813748567e-08 3.993506537487965e-08 -3.251197524040644e-08 -1.251969984696743e-08 1.609108330034194e-08 
5.384076815363072 1.015537761847645e-07 -2.786056552580054e-08 -8.680362931387426e-08 4.485628065614855e-08 4.562568393225656e-08 -3.702627585490944e-08 -1.428973872840038e-08 1.828305609318816e-08 
5.39007801560312 1.161754418827674e-07 -3.182500959334631e-08 -9.922610792925361e-08 5.115958977182982e-08 5.208093917292747e-08 -4.212872591017153e-08 -1.629533772928288e-08 2.075408428417115e-08 
5.396079215843169 1.327876013579489e-07 -3.632172108143035e-08 -1.13327705037998e-07 5.829670838358932e-08 5.939702598821004e-08 -4.789059083709262e-08 -1.856577682691026e-08 2.35370225708902e-08 
5.402080416083217 1.516448745627498e-07 -4.141766311386883e-08 -1.29321388499642e-07 6.637067012824656e-08 6.768136310468908e-08 -5.439106864830989e-08 -2.113369964424155e-08 2.666824952565974e-08 
5.408081616323265 1.730322409412656e-07 -4.718762107217404e-08 -1.47445255620416e-07 7.549627920565941e-08 7.705379167305751e-08 -6.17180863711886e-08 -2.403546520649352e-08 3.018800392393693e-08 
5.414082816563313 1.972683770199141e-07 -5.371504031230407e-08 -1.679652595119267e-07 8.580133520904078e-08 8.764788869332058e-08 -6.9969166469009e-08 -2.731153240073457e-08 3.414074847142848e-08 
5.420084016803361 2.24709327053791e-07 -6.10929445838911e-08 -1.911782027858874e-07 9.742797140601224e-08 9.961240482261255e-08 -7.925236832886386e-08 -3.100687972990457e-08 3.857556266628586e-08 
5.426085217043409 2.557525361696387e-07 -6.942494192884976e-08 -2.174150216340145e-07 1.105341154517241e-07 1.131128367555732e-07 -8.968731015540038e-08 -3.517146311193479e-08 4.354656659332951e-08 
5.432086417283457 2.908412776538849e-07 -7.882632530249402e-08 -2.470443850023835e-07 1.252950820710336e-07 1.283331450398854e-07 -1.014062768729848e-07 -3.986071463918188e-08 4.911337750480079e-08 
5.438087617523505 3.304695083691521e-07 -8.942527564865573e-08 -2.804766353178715e-07 1.419053078218086e-07 1.454776288911338e-07 -1.145554199039907e-07 -4.513608538294504e-08 5.534160109605017e-08 
5.444088817763553 3.751871887489176e-07 -1.013641756709232e-07 -3.181680990626231e-07 1.605802386451046e-07 1.647729703013893e-07 -1.292960549564205e-07 -5.106563550207002e-08 6.230335943410643e-08 
5.450090018003601 4.256061064212973e-07 -1.148010430750033e-07 -3.606257974222994e-07 1.815583815192604e-07 1.864704604944508e-07 -1.458060642185286e-07 -5.772467509315991e-08 7.007785754147765e-08 
5.456091218243649 4.824062452527337e-07 -1.299110926122567e-07 -4.084125892565236e-07 2.051035321626733e-07 2.108484225669266e-07 -1.642814096199636e-07 -6.519645940224097e-08 7.875199067598386e-08 
5.462092418483697 5.463427444838302e-07 -1.468884368314376e-07 -4.621527807563669e-07 2.315071913727343e-07 2.382148449675084e-07 -1.849377640764536e-07 -7.357294220333858e-08 8.842099437906683e-08 
5.468093618723745 6.182534956556103e-07 -1.659479360441901e-07 -5.225382383645613e-07 2.610911832444773e-07 2.689102413058926e-07 -2.080122678863571e-07 -8.295559133769104e-08 9.91891393889608e-08 
5.474094818963793 6.990674281975596e-07 -1.873272086294359e-07 -5.90335043839619e-07 2.942104891800356e-07 3.033107528466001e-07 -2.337654176904696e-07 -9.345627059757548e-08 1.111704735303957e-07 
5.480096019203841 7.89813537871098e-07 -2.112888134417051e-07 -6.663907327450353e-07 3.31256312276852e-07 3.418315109299457e-07 -2.624830956391225e-07 -1.051981923301742e-07 1.244896126981699e-07 
5.486097219443889 8.916307157351464e-07 -2.3812261674789e-07 -7.516421601385619e-07 3.726593873663234e-07 3.849302774708724e-07 -2.944787466305039e-07 -1.183169453286996e-07 1.392825830469507e-07 
5.492098419683937 1.005778438925546e-06 -2.681483567947721e-07 -8.471240398230663e-07 4.188935526624982e-07 4.331113826142527e-07 -3.300957116887803e-07 -1.329616027692001e-07 1.556977164830097e-07 
5.498099619923985 1.133648388317653e-06 -3.017184198047755e-07 -9.539782061981032e-07 4.704795996695315e-07 4.869299795702563e-07 -3.697097257373324e-07 -1.4929591514102e-07 1.738966015241893e-07 
5.504100820164033 1.276777062071576e-06 -3.39220841908229e-07 -1.073463650517685e-06 5.279894186835935e-07 5.469966376128397e-07 -4.137315881884572e-07 -1.674995933056786e-07 1.940550915511563e-07 
5.510102020404081 1.436859458141555e-06 -3.810825522453542e-07 -1.206967386212062e-06 5.920504579061322e-07 6.139822951954081e-07 -4.626100149132523e-07 -1.87769687001729e-07 2.163643724148064e-07 
5.516103220644129 1.615763903063531e-06 -4.277728732082715e-07 -1.356016200866118e-06 6.633505148569185e-07 6.88623596116862e-07 -5.168346802710074e-07 -2.103220642906289e-07 2.410320912904477e-07 
5.522104420884177 1.815548108715828e-06 -4.79807294540398e-07 -1.522289355459916e-06 7.426428794327951e-07 7.717286326550383e-07 -5.76939457963018e-07 -2.353929976093899e-07 2.682835485779694e-07 
5.528105621124225 2.038476543274208e-06 -5.377515387652506e-07 -1.707632294563178e-06 8.307518485969791e-07 8.641831205688917e-07 -6.43505869527946e-07 -2.632408622582419e-07 2.983629545375236e-07 
5.534106821364273 2.287039207250495e-06 -6.022259361761976e-07 -1.914071434329294e-06 9.285786332990247e-07 9.669570318512915e-07 -7.17166749311212e-07 -2.941479533041342e-07 3.315347522211816e-07 
5.540108021604321 2.56397191030859e-06 -6.73910128380099e-07 -2.143830098349189e-06 1.037107678811999e-06 1.081111712086329e-06 -7.986101347157468e-07 -3.284224270218819e-07 3.68085008111534e-07 
5.546109221844369 2.872278149487643e-06 -7.535481201478127e-07 -2.399345674693866e-06 1.157413420225145e-06 1.2078075102233e-06 -8.885833904720851e-07 -3.664003731223362e-07 4.083228717072173e-07 
5.552110422084417 3.215252694522195e-06 -8.41953700079616e-07 -2.683288070788181e-06 1.290667495341589e-06 1.348311949518673e-06 -9.878975755485342e-07 -4.084480241291898e-07 4.525821051019182e-07 
5.558111622324465 3.596506991125692e-06 -9.400162513398101e-07 -2.998579546108342e-06 1.4381464376948e-06 1.50400846931124e-06 -1.097432061152954e-06 -4.54964108360961e-07 5.012226833865485e-07 
5.564112822564513 4.019996498387915e-06 -1.048706974447979e-06 -3.348416006071734e-06 1.601239872808092e-06 1.676405768178205e-06 -1.218139408052847e-06 -5.063823530501801e-07 5.546324664631331e-07 
5.570114022804561 4.490050081818185e-06 -1.169085544829971e-06 -3.736289843878584e-06 1.78145924117124e-06 1.867147779864257e-06 -1.351050511155928e-06 -5.631741441857202e-07 6.132289425927453e-07 
5.576115223044609 5.01140158903346e-06 -1.302307228524835e-06 -4.166014420458814e-06 1.980447071689994e-06 2.078024314174693e-06 -1.497280018945108e-06 -6.25851349694286e-07 6.774610437077953e-07 
5.582116423284657 5.589223740630973e-06 -1.449630480109508e-06 -4.64175027606109e-06 2.199986829570251e-06 2.310982395769979e-06 -1.658032034946201e-06 -6.949693125809772e-07 7.478110322005578e-07 
5.588117623524705 6.229164474384794e-06 -1.612425047535465e-06 -5.168033170380106e-06 2.442013362720754e-06 2.568138334484637e-06 -1.834606107919417e-06 -7.711300206242227e-07 8.247964585545028e-07 
5.594118823764753 6.937385886549321e-06 -1.792180609164859e-06 -5.749804051438001e-06 2.708623970788458e-06 2.851790561410083e-06 -2.028403516903373e-06 -8.549854591647606e-07 9.089721888123814e-07 
5.600120024004801 7.720605919723706e-06 -1.990515968841895e-06 -6.392441056699198e-06 3.00209012087024e-06 3.164433265520245e-06 -2.24093385659893e-06 -9.472411534392737e-07 1.000932500474929e-06 
