# Energy: -29.50158501891822
# J: 1
# M: 1
# Lmin: 1
# Lmax: 9
# grid size: 5000
# h: 0.006001200240048009
5 0 0 0 0 0 0 0 0 
5.006001200240048 4.078836296059047e-11 -1.459545732066242e-11 -2.610149039210196e-11 1.829755494736766e-11 1.229414187578534e-11 -1.421148022782907e-11 -3.185536483900535e-12 6.911763016272196e-12 
5.012002400480096 8.311827630733076e-11 -2.973542628729551e-11 -5.318009500553304e-11 3.726685168189989e-11 2.504261658864474e-11 -2.893349219055641e-11 -6.488637326676741e-12 1.406681038731549e-11 
5.018003600720144 1.285516065996892e-10 -4.59714777406083e-11 -8.222580047827693e-11 5.758831710323152e-11 3.870580273716364e-11 -4.46832417356921e-11 -1.002848273416381e-11 2.171174973960542e-11 
5.024004800960192 1.787234404957467e-10 -6.388059915961358e-11 -1.142745686605176e-10 7.997321398583238e-11 5.37652425041389e-11 -6.200092937977547e-11 -1.392976898214865e-11 3.010404291262449e-11 
5.03000600120024 2.353981111782333e-10 -8.408463112741183e-11 -1.504433889093442e-10 1.051870886702001e-10 7.07396481673821e-11 -8.14670232268243e-11 -1.832683795757901e-11 3.951997976421263e-11 
5.036007201440288 3.005268328372673e-10 -1.072702432093294e-10 -1.919663285479947e-10 1.340738588391546e-10 9.020136662646937e-11 -1.03720004095198e-10 -2.336792976468609e-11 5.026288445219008e-11 
5.042008401680336 3.763087940379561e-10 -1.342100760650914e-10 -2.402327187852044e-10 1.675812741317823e-10 1.127938075301108e-10 -1.2947509744734e-10 -2.921968777182935e-11 6.267177753834828e-11 
5.048009601920384 4.652575278153823e-10 -1.657856648639864e-10 -2.968285935344678e-10 2.0678846896568e-10 1.392503326004575e-10 -1.595444986239836e-10 -3.607204375933823e-11 7.713071585995944e-11 
5.054010802160432 5.70274402711183e-10 -2.030127667848984e-10 -3.635825142718257e-10 2.529363352905053e-10 1.704151109056001e-10 -1.94859603891235e-10 -4.414361293064772e-11 9.407903593339489e-11 
5.06001200240048 6.947311591220955e-10 -2.470697407234401e-10 -4.426169620346473e-10 3.074614710782719e-10 2.072664657955305e-10 -2.364957787156976e-10 -5.368773414185176e-11 1.140227354293342e-10 
5.066013202640528 8.425635458162298e-10 -2.993296691250338e-10 -5.364065558287347e-10 3.720345068622052e-10 2.509432731427709e-10 -2.857002256875859e-10 -6.499929958428547e-11 1.375472408037466e-10 
5.072014402880576 1.018378290573449e-09 -3.613969694936124e-10 -6.478444640238331e-10 4.486036768383713e-10 3.027750169752594e-10 -3.439235571468539e-10 -7.842253021808414e-11 1.653318273767997e-10 
5.078015603120624 1.227575866367158e-09 -4.351493164282841e-10 -7.803185115736484e-10 5.394445827001444e-10 3.643161674575869e-10 -4.128557316485368e-10 -9.435986848439631e-11 1.981659809923472e-10 
5.084016803360672 1.476491791321118e-09 -5.227857842445246e-10 -9.37798651618348e-10 6.472171976565072e-10 4.373856176642668e-10 -4.944670789900654e-10 -1.132821782759221e-10 2.369680179038074e-10 
5.09001800360072 1.772559528938808e-09 -6.268822259137498e-10 -1.124937666375029e-09 7.750312755225431e-10 5.241120001516841e-10 -5.910552158861942e-10 -1.357404639399911e-10 2.828063118237128e-10 
5.096019203840768 2.124498437895753e-09 -7.504550270818011e-10 -1.347187190927134e-09 9.265214662142897e-10 6.269858026625801e-10 -7.052987439741256e-10 -1.623793454035662e-10 3.36923514309659e-10 
5.102020404080816 2.542530662003605e-09 -8.970345154578221e-10 -1.610931416846578e-09 1.105933595568602e-09 7.489193152906029e-10 -8.403187242871869e-10 -1.939525555765062e-10 4.007641970593846e-10 
5.108021604320864 3.038631355663341e-09 -1.070749467315268e-09 -1.923641133278918e-09 1.318223745545632e-09 8.933155701946492e-10 -9.99749038426503e-10 -2.313407592890088e-10 4.760063925230012e-10 
5.114022804560912 3.626817213932362e-09 -1.276424335879956e-09 -2.294051104427878e-09 1.569171972210595e-09 1.064147580776478e-09 -1.187816877302381e-09 -2.755720304797607e-10 5.645975628274469e-10 
5.12002400480096 4.323478925780146e-09 -1.519691032901598e-09 -2.732364167997344e-09 1.865512725324977e-09 1.266049351599326e-09 -1.409434744556564e-09 -3.278453665474983e-10 6.687955867054638e-10 
5.126025205041008 5.147763901583772e-09 -1.807117326859511e-09 -3.250485873262912e-09 2.215084287028905e-09 1.504420314892273e-09 -1.670305524781007e-09 -3.895576661304245e-10 7.912154203251837e-10 
5.132026405281056 6.122016449660773e-09 -2.146354181423681e-09 -3.862293964703262e-09 2.626999830316867e-09 1.785545056100538e-09 -1.977042347702389e-09 -4.623346495505637e-10 9.348821610580123e-10 
5.138027605521104 7.272283500775775e-09 -2.546304648604318e-09 -4.583947562660111e-09 3.111843013373681e-09 2.116730421636236e-09 -2.337305179998214e-09 -5.480662602644754e-10 1.103291323764216e-09 
5.144028805761153 8.628895014129481e-09 -3.017317255347354e-09 -5.434241501949941e-09 3.681891376145268e-09 2.506462358975298e-09 -2.759956297849624e-09 -6.489471514545691e-10 1.300477227607877e-09 
5.150030006001201 1.02271293543338e-08 -3.571407183292064e-09 -6.435011968870284e-09 4.351371193791912e-09 2.964585124943474e-09 -3.255237037318046e-09 -7.675229349799162e-10 1.531090488250216e-09 
5.156031206241249 1.210797521828136e-08 -4.222508942379038e-09 -7.611600333310632e-09 5.136747871155685e-09 3.502505815042035e-09 -3.834968487852922e-09 -9.067429509326206e-10 1.800485716048264e-09 
5.162032406481297 1.431900312665481e-08 -4.986764683624613e-09 -8.993382912927201e-09 6.057056436537328e-09 4.133427517786054e-09 -4.512779088481684e-09 -1.070020405714207e-09 2.114820636156356e-09 
5.168033606721345 1.691536109120263e-08 -5.882852788573537e-09 -1.061437533837814e-08 7.134277215613022e-09 4.872614786273038e-09 -5.304362408370727e-09 -1.261300825603471e-09 2.481167971755692e-09 
5.174034806961393 1.996091084107776e-08 -6.932361916892503e-09 -1.251392122084024e-08 8.393762341140179e-09 5.737695547783278e-09 -6.227768745423781e-09 -1.485139882029492e-09 2.907641567594042e-09 
5.180036007201441 2.352952295592511e-08 -8.160216293741505e-09 -1.473747596445082e-08 9.864719385334911e-09 6.749004044563367e-09 -7.303734560417732e-09 -1.746791765037193e-09 3.403538378178229e-09 
5.186037207441489 2.770655142767366e-08 -9.595158679710942e-09 -1.733749782658005e-08 1.158075909379594e-08 7.929969918703071e-09 -8.556054181940657e-09 -2.052309413633791e-09 3.979498103896875e-09 
5.192038407681537 3.259051057608466e-08 -1.127029819327984e-08 -2.037445971823187e-08 1.358051495715226e-08 9.307559125040937e-09 -1.00119986712165e-08 -2.408658056778093e-09 4.647682429620912e-09 
5.198039607921585 3.829497989529602e-08 -1.322373095426466e-08 -2.3917996766348e-08 1.59083431839744e-08 1.09127729824018e-08 -1.170278722793443e-08 -2.823843677714787e-09 5.421976004477768e-09 
5.204040808161633 4.495076533152437e-08 -1.549924239220529e-08 -2.804820634098229e-08 1.861511254084798e-08 1.278121235946944e-08 -1.36641170506304e-08 -3.307058188204725e-09 6.318211499040467e-09 
5.210042008401681 5.270834870878465e-08 -1.814710102197646e-08 -3.28571190955389e-08 2.17590945079714e-08 1.495371474173635e-08 -1.593675814017887e-08 -3.868843289047633e-09 7.354421287599025e-09 
5.216043208641729 6.174066055445241e-08 -2.122495453629836e-08 -3.845036159053789e-08 2.540696526647022e-08 1.747707274496294e-08 -1.856722015471579e-08 -4.521275200267833e-09 8.551118528929212e-09 
5.222044408881777 7.224621545567676e-08 -2.47988402077011e-08 -4.49490332843937e-08 2.963493219221363e-08 2.040484353333608e-08 -2.16084990909662e-08 -5.278172669609942e-09 9.93161065943058e-09 
5.228045609121824 8.445265332850949e-08 -2.894432283757472e-08 -5.249182309285984e-08 3.452999878577431e-08 2.379825957215445e-08 -2.512091228257092e-08 -6.155330912780982e-09 1.152234856799265e-08 
5.234046809361872 9.862073463308587e-08 -3.374777484416285e-08 -6.123739335719099e-08 4.019138332487186e-08 2.772725220067471e-08 -2.917303097258546e-08 -7.170784404422964e-09 1.335331499271107e-08 
5.24004800960192 1.150488426507433e-07 -3.930781455189191e-08 -7.136706193544743e-08 4.673210798979908e-08 3.227160065618967e-08 -3.384272053674392e-08 -8.345101726378817e-09 1.545845596576839e-08 
5.246049209841968 1.340780514845488e-07 -4.573692033863497e-08 -8.308781625811439e-08 5.428077678957483e-08 3.752222042108668e-08 -3.921829930807225e-08 -9.701715990718966e-09 1.787615943446957e-08 
5.252050410082016 1.560978244867517e-07 -5.316324002290867e-08 -9.663569658534105e-08 6.298356231246882e-08 4.358260610628773e-08 -4.539982788354955e-08 -1.126729469053836e-08 2.064978550351171e-08 
5.258051610322064 1.815524143900844e-07 -6.173261673724593e-08 -1.122795893862128e-07 7.300642314459232e-08 5.05704455329443e-08 -5.250054178109343e-08 -1.307215319303036e-08 2.382825307587144e-08 
5.264052810562112 2.109480435608752e-07 -7.161085454481119e-08 -1.303254757486757e-07 8.453757574976768e-08 5.861942323546856e-08 -6.064844136125477e-08 -1.515071647811158e-08 2.746668801686222e-08 
5.27005401080216 2.448609505382293e-07 -8.298624922150087e-08 -1.511211840406369e-07 9.77902466879992e-08 6.788123328887976e-08 -6.998805403343033e-08 -1.754203414321389e-08 3.162713832743038e-08 
5.276055211042208 2.83946397413952e-07 -9.607241195305426e-08 -1.750617006973646e-07 1.13005733273393e-07 7.852782316800204e-08 -8.068238493155801e-08 -2.029035414205502e-08 3.63793621879246e-08 
5.282056411282256 3.289487416824749e-07 -1.111114161937604e-07 -2.025950980269481e-07 1.304568031397832e-07 9.07538922811772e-08 -9.291507346918281e-08 -2.34457612034918e-08 4.180169512148903e-08 
5.288057611522304 3.807126859898123e-07 -1.283773006077058e-07 -2.342291433238024e-07 1.504514656976367e-07 1.047796708927098e-07 -1.068927744680465e-07 -2.706488638713884e-08 4.798200292577383e-08 
5.294058811762352 4.401958297775102e-07 -1.481799638724592e-07 -2.705386593797294e-07 1.733371511325126e-07 1.208540073619259e-07 -1.228477838970397e-07 -3.121169477642792e-08 5.501872743147728e-08 
5.3000600120024 5.084826581942871e-07 -1.708694901756022e-07 -3.121737127025682e-07 1.995053354162849e-07 1.392577939880176e-07 -1.410409306579698e-07 -3.595835888822611e-08 6.302203256471494e-08 
5.306061212242448 5.868001158777659e-07 -1.968409474831526e-07 -3.598687124135909e-07 2.293966527796316e-07 1.603077642640111e-07 -1.617647573090501e-07 -4.13862259919679e-08 7.211505861547336e-08 
5.312062412482496 6.76534926334859e-07 -2.265397041117455e-07 -4.144525099158266e-07 2.635065402291711e-07 1.843606970151473e-07 -1.853470141234923e-07 -4.758688818129547e-08 8.243529304427445e-08 
5.318063612722544 7.79252831715522e-07 -2.604673127988205e-07 -4.768595970253372e-07 3.023914619854103e-07 2.118180657312461e-07 -2.121544924355959e-07 -5.466336472812423e-08 9.413606659116504e-08 
5.324064812962592 8.967199428239924e-07 -2.9918801534172e-07 -5.481425083543985e-07 3.466757651675112e-07 2.431311744032474e-07 -2.425972248258956e-07 -6.273140697335429e-08 1.073881838824569e-07 
5.33006601320264 1.030926405287034e-06 -3.433359249712552e-07 -6.294855423470124e-07 3.970592216557899e-07 2.788068243445956e-07 -2.771330813350871e-07 -7.192093677045153e-08 1.223816981581273e-07 
5.336067213442688 1.184112604942019e-06 -3.936229479407255e-07 -7.222199245097085e-07 4.543253148193665e-07 3.194135598212563e-07 -3.16272792567435e-07 -8.237763029792587e-08 1.393278401629459e-07 
5.342068413682736 1.358798153759425e-06 -4.508475103491297e-07 -8.278405460693253e-07 5.193503336996183e-07 3.655885438320079e-07 -3.605854322410499e-07 -9.426465989418592e-08 1.584611116533766e-07 
5.348069613922784 1.557813917013411e-06 -5.15904160977605e-07 -9.480244215381671e-07 5.931133412834468e-07 4.180451190744459e-07 -4.107043934566104e-07 -1.077646074429459e-07 1.80041554365852e-07 
5.354070814162832 1.78433736299741e-06 -5.897941258996755e-07 -1.084651019487587e-06 6.76707087675453e-07 4.775811130021411e-07 -4.673338946784737e-07 -1.230815637485671e-07 2.043572056655385e-07 
5.36007201440288 2.041931538383269e-06 -6.736368958257089e-07 -1.239824632233524e-06 7.713499432745692e-07 5.450879499237855e-07 -5.312560531421797e-07 -1.404434292874117e-07 2.317267524431782e-07 
5.366073214642928 2.334587995373395e-06 -7.686829325551573e-07 -1.415898962129491e-06 8.783989314659939e-07 6.215606373139585e-07 -6.033385651083711e-07 -1.601044327020348e-07 2.625023951456139e-07 
5.372074414882976 2.66677402112301e-06 -8.763275865297972e-07 -1.615504114748898e-06 9.993639448386734e-07 7.081086978940111e-07 -6.845430340621209e-07 -1.823478844180625e-07 2.970729341073926e-07 
5.378075615123024 3.043484545537164e-06 -9.981263232979888e-07 -1.841576202421478e-06 1.135923233514759e-06 8.059681235958518e-07 -7.759339895942188e-07 -2.074891838066649e-07 3.35867090590224e-07 
5.384076815363072 3.470299130492615e-06 -1.135811362702217e-06 -2.097389775366459e-06 1.289940258810637e-06 9.165144322347609e-07 -8.786886412814413e-07 -2.358790993859435e-07 3.793570751274923e-07 
5.39007801560312 3.953444471810842e-06 -1.291309840775442e-06 -2.38659331203333e-06 1.463482010116556e-06 1.04127691258184e-06 -9.941074133890723e-07 -2.679073426491567e-07 4.280624159055541e-07 
5.396079215843169 4.49986287492174e-06 -1.466763610658638e-06 -2.713248015210314e-06 1.658838887558111e-06 1.181954148532601e-06 -1.123625307632406e-06 -3.040064572227899e-07 4.82554059984961e-07 
5.402080416083217 5.117287196107196e-06 -1.664550805311769e-06 -3.081870175977711e-06 1.878546257659123e-06 1.340430918203759e-06 -1.268824142534765e-06 -3.446560461888085e-07 5.434587601654124e-07 
5.408081616323265 5.814322773491859e-06 -1.887309291359397e-06 -3.497477383650001e-06 2.125407793829936e-06 1.518796569041855e-06 -1.431445719086116e-06 -3.903873615481695e-07 6.114637602202954e-07 
5.414082816563313 6.600536905537786e-06 -2.137962150062693e-06 -3.965638876443648e-06 2.402520718022717e-06 1.719364975378772e-06 -1.613405963416009e-06 -4.417882809513851e-07 6.873217910619141e-07 
5.420084016803361 7.486556469674674e-06 -2.41974532811011e-06 -4.492530344697726e-06 2.713303064286972e-06 1.944696190302625e-06 -1.816810098022855e-06 -4.995086979705087e-07 7.71856390138623e-07 
5.426085217043409 8.484174309821773e-06 -2.736237607634126e-06 -5.084993516027523e-06 3.061523089182471e-06 2.197619909206812e-06 -2.04396889372287e-06 -5.642663533286674e-07 8.6596755600145e-07 
5.432086417283457 9.606465058884166e-06 -3.091393051551515e-06 -5.750600869765419e-06 3.451330958016328e-06 2.481260867912417e-06 -2.297416054869509e-06 -6.368531356306885e-07 9.706377495016956e-07 
5.438087617523505 1.086791110077628e-05 -3.489576086944915e-06 -6.497725846390855e-06 3.887292839617302e-06 2.799066303803478e-06 -2.579926790519294e-06 -7.18141881243351e-07 1.086938252483747e-06 
5.444088817763553 1.228453941606804e-05 -3.935599395705294e-06 -7.335618936317232e-06 4.374427545789188e-06 3.154835613942525e-06 -2.894537624053442e-06 -8.090937040474941e-07 1.21603589410997e-06 
5.450090018003601 1.387407009587834e-05 -4.434764787984281e-06 -8.274490051325166e-06 4.918245854639496e-06 3.552752349613727e-06 -3.244567493275891e-06 -9.107658868169461e-07 1.35920015408852e-06 
5.456091218243649 1.565607735005879e-05 -4.99290724010297e-06 -9.325597601038695e-06 5.524792659598251e-06 3.997418692138742e-06 -3.633640192165667e-06 -1.024320366960741e-06 1.517810651061442e-06 
5.462092418483697 1.765216387790151e-05 -5.616442284365671e-06 -1.0501344716055e-05 6.20069208805945e-06 4.493892560088581e-06 -4.06570820423253e-06 -1.151032850284185e-06 1.693365023241169e-06 
5.468093618723745 1.988614951244095e-05 -6.312416943663403e-06 -1.181538307857223e-05 6.953195735126079e-06 5.047727503133221e-06 -4.545077975776673e-06 -1.292302587269231e-06 1.887487207050395e-06 
5.474094818963793 2.238427509275133e-05 -7.088564408746972e-06 -1.328272484051785e-05 7.790234158845637e-06 5.665015542686135e-06 -5.076436675251888e-06 -1.449662847132635e-06 2.101936118015541e-06 
5.480096019203841 2.517542256230537e-05 -7.953362660523408e-06 -1.491986312815744e-05 8.720471783511491e-06 6.352433124166836e-06 -5.664880482343385e-06 -1.624792125578305e-06 2.338614736480334e-06 
5.486097219443889 2.82913523352756e-05 -8.91609724359471e-06 -1.674490165084643e-05 9.753365356995793e-06 7.117290350071465e-06 -6.315944447262041e-06 -1.819526122704002e-06 2.599579598836913e-06 
5.492098419683937 3.176695901642193e-05 -9.986928400422577e-06 -1.877769394985215e-05 1.089922610659055e-05 7.967583667057538e-06 -7.03563395709291e-06 -2.035870527937361e-06 2.88705069291118e-06 
5.498099619923985 3.564054660370021e-05 -1.117696277786873e-05 -2.103999284088685e-05 1.216928573537822e-05 8.912052183857696e-06 -7.830457841782449e-06 -2.276014649146864e-06 3.203421753881844e-06 
5.504100820164033 3.995412434570633e-05 -1.24983299193244e-05 -2.355561062101333e-05 1.357576639764388e-05 9.960237799981691e-06 -8.707463147475097e-06 -2.542345923183864e-06 3.551270954654444e-06 
5.510102020404081 4.475372446827381e-05 -1.396426375609405e-05 -2.635059062675915e-05 1.513195478718798e-05 1.112254932778405e-05 -9.674271599381741e-06 -2.83746534504549e-06 3.933371981949389e-06 
5.516103220644129 5.008974302569501e-05 -1.558918931102415e-05 -2.945339074544316e-05 1.685228046650751e-05 1.241033079250289e-05 -1.073911777015095e-05 -3.164203852588401e-06 4.352705486494696e-06 
5.522104420884177 5.601730517182762e-05 -1.7388814825446e-05 -3.289507949570821e-05 1.875239855759163e-05 1.383593409624866e-05 -1.191088896278837e-05 -3.52563970325237e-06 4.812470892638837e-06 
5.528105621124225 6.259665618446001e-05 -1.938022951720862e-05 -3.670954530588402e-05 2.084927690642903e-05 1.541279623256919e-05 -1.319916680950484e-05 -3.925116878552981e-06 5.316098549417553e-06 
5.534106821364273 6.989357961239432e-05 -2.158200717278088e-05 -4.093371962988798e-05 2.316128782315452e-05 1.715552123807102e-05 -1.461427057944277e-05 -4.366264551156133e-06 5.867262201622648e-06 
5.540108021604321 7.797984394840294e-05 -2.401431576997036e-05 -4.560781454971004e-05 2.570830448797324e-05 1.907996706656307e-05 -1.616730217901294e-05 -4.85301764813555e-06 6.46989175573469e-06 
5.546109221844369 8.693367926212787e-05 -2.669903331959765e-05 -5.077557552091114e-05 2.851180209950042e-05 2.120333756923352e-05 -1.787019281854973e-05 -5.38963854251991e-06 7.128186311700133e-06 
5.552110422084417 9.684028525472906e-05 -2.965987010433806e-05 -5.648454992278527e-05 3.159496382684681e-05 2.354427976139968e-05 -1.973575130814765e-05 -5.980739903440393e-06 7.846627427464519e-06 
5.558111622324465 0.0001077923722212058 -3.292249748075256e-05 -6.278637207766962e-05 3.498279160957469e-05 2.612298655230688e-05 -2.177771393386351e-05 -6.63130873307458e-06 8.629992578925796e-06 
5.564112822564513 0.0001198907364263881 -3.651468339612814e-05 -6.973706540410115e-05 3.870222183045826e-05 2.896130510922103e-05 -2.401079585294908e-05 -7.34673161613096e-06 9.483368773557007e-06 
5.570114022804561 0.0001332448714161369 -4.046643475498245e-05 -7.73973623658926e-05 4.278224586471643e-05 3.208285102058198e-05 -2.645074393341787e-05 -8.132821204813009e-06 1.041216627137881e-05 
5.576115223044609 0.0001479736167958452 -4.481014675081092e-05 -8.583304287348387e-05 4.72540354859741e-05 3.551312841518749e-05 -2.911439094904784e-05 -8.995843959026326e-06 1.14221323622549e-05 
5.582116423284657 0.0001642058460133815 -4.9580759256711e-05 -9.511529178488194e-05 5.215107308356261e-05 3.92796561851841e-05 -3.201971102588815e-05 -9.942549158031004e-06 1.25193651436553e-05 
5.588117623524705 0.0001820811946826691 -5.481592034375878e-05 -0.0001053210761408918 5.750928661783532e-05 4.34121004499779e-05 -3.518587622048704e-05 -1.098019919577981e-05 1.371032723810351e-05 
5.594118823764753 0.0002017508309766126 -6.055615696828618e-05 -0.0001165335427529084 6.336718920987722e-05 4.794241338597419e-05 -3.863331409341021e-05 -1.211660116780714e-05 1.500185938451616e-05 
5.600120024004801 0.0002233782696035404 -6.684505283836835e-05 -0.0001288424367410457 6.976602322928766e-05 5.290497853324171e-05 -4.238376612420204e-05 -1.336013975273196e-05 1.640119383258211e-05 
