# Energy: -61.86623190464058
# J: 1
# M: 1
# Lmin: 1
# Lmax: 9
# grid size: 5000
# h: 0.006001200240048009
5 0 0 0 0 0 0 0 0 
5.006001200240048 2.262075834061334e-11 -8.122326971331149e-12 -1.445398698340881e-11 1.017145383478679e-11 6.786549892631846e-12 -7.887410183551787e-12 -1.745989759505492e-12 3.828581686527162e-12 
5.012002400480096 4.610481719858757e-11 -1.65509806500225e-11 -2.945416658434832e-11 2.072032773631862e-11 1.382606338389557e-11 -1.60611199348956e-11 -3.556856207961108e-12 7.793271485773294e-12 
5.018003600720144 7.132737530970868e-11 -2.559645945741991e-11 -4.555424241917416e-11 3.202916019279594e-11 2.137500340878015e-11 -2.481134327664913e-11 -5.498395252322047e-12 1.203211277107762e-11 
5.024004800960192 9.920551384898167e-11 -3.558390315144017e-11 -6.333414683894411e-11 4.449822244025707e-11 2.970183738876841e-11 -3.44414822581662e-11 -7.639491383452805e-12 1.668935133159517e-11 
5.03000600120024 1.307299571737318e-10 -4.686418053069241e-11 -8.341986463630986e-11 5.855887414433757e-11 3.90960435512846e-11 -4.527794328606183e-11 -1.005441473512045e-11 2.191995397855135e-11 
5.036007201440288 1.669978042529071e-10 -5.982530777489544e-11 -1.065038563160764e-10 7.468731028275498e-11 4.987738919916187e-11 -5.768024023794433e-11 -1.28251893812954e-11 2.789426664353762e-11 
5.042008401680336 2.092472926553654e-10 -7.490456017691247e-11 -1.333667315010343e-10 9.341912259412999e-11 6.240576828799447e-11 -7.20516809767522e-11 -1.604410535368454e-11 3.480294035795227e-11 
5.048009601920384 2.588956414407716e-10 -9.260163452814568e-11 -1.649008136543654e-10 1.153650926948567e-10 7.709188189628302e-11 -8.885093017935791e-11 -1.981644604254091e-11 4.286225306005878e-11 
5.054010802160432 3.175810381226583e-10 -1.13493225323084e-10 -2.021362484158985e-10 1.412286404092277e-10 9.440905006790096e-11 -1.086047459196166e-10 -2.426350397318051e-11 5.231995778469653e-11 
5.06001200240048 3.872098849892869e-10 -1.382493942355259e-10 -2.462703376646283e-10 1.718253689028284e-10 1.149064563381241e-10 -1.319221995423491e-10 -2.952596125009167e-11 6.346179330689726e-11 
5.066013202640528 4.700104996351969e-10 -1.676521383650143e-10 -2.987008288338261e-10 2.081051771587253e-10 1.392241465713685e-10 -1.595107076037951e-10 -3.576771612077039e-11 7.661880163907817e-11 
5.072014402880576 5.685945727490891e-10 -2.026165982583031e-10 -3.610639535031362e-10 2.511774498345585e-10 1.681101313219831e-10 -1.92194230805824e-10 -4.318024408028667e-11 9.217560787443627e-11 
5.078015603120624 6.860278230510194e-10 -2.442153916518601e-10 -4.352780908544166e-10 3.023398845192265e-10 2.024399757581406e-10 -2.309340278541057e-10 -5.198759071116119e-11 1.105798317248249e-10 
5.084016803360672 8.259114555414534e-10 -2.937066134680228e-10 -5.235940306121456e-10 3.631115770518913e-10 2.432393034137913e-10 -2.768523921088091e-10 -6.245210406909747e-11 1.32352816761004e-10 
5.09001800360072 9.924762263389658e-10 -3.525661072482167e-10 -6.286529273802471e-10 4.352710572735954e-10 2.91709689957368e-10 -3.312598459829359e-10 -7.488102695788089e-11 1.58101882908071e-10 
5.096019203840768 1.190691147361832e-09 -4.225246885288754e-10 -7.535531749636818e-10 5.209000509492652e-10 3.492584812283014e-10 -3.956863226055586e-10 -8.963408399384912e-11 1.885343302976014e-10 
5.102020404080816 1.426389129530153e-09 -5.056110874415164e-10 -9.019275867728809e-10 6.22433839402202e-10 4.175331365605135e-10 -4.719169267367587e-10 -1.071322150798519e-10 2.244734482834814e-10 
5.108021604320864 1.706412167145819e-09 -6.04201476996584e-10 -1.078032448505025e-09 7.427191975905431e-10 4.984607745731361e-10 -5.6203293782617e-10 -1.278676259574737e-10 2.668768124755027e-10 
5.114022804560912 2.038779012292685e-09 -7.210765662015672e-10 -1.286850214028508e-09 8.850810150341412e-10 5.942936849662567e-10 -6.684587980662609e-10 -1.524153480790701e-10 3.168571852481469e-10 
5.12002400480096 2.432878680663787e-09 -8.594873646384139e-10 -1.534207847111712e-09 1.053398843437392e-09 7.076616673310429e-10 -7.940159180096108e-10 -1.814465243595438e-10 3.757063715840947e-10 
5.126025205041008 2.899693573881489e-09 -1.023230868815402e-09 -1.82691307297907e-09 1.252194771471652e-09 8.416321676003265e-10 -9.419842325838152e-10 -2.157436646801662e-10 4.449224225813395e-10 
5.132026405281056 3.452056503401576e-09 -1.216737082110956e-09 -2.172911097595941e-09 1.486734202559387e-09 9.997793056736885e-10 -1.11617255201632e-09 -2.562181455984174e-10 5.262406237822812e-10 
5.138027605521104 4.104946463333694e-09 -1.4451689612066e-09 -2.581464682343216e-09 1.763141307378236e-09 1.186263025212653e-09 -1.32099887622101e-09 -3.03930262871077e-10 6.216687549885727e-10 
5.144028805761153 4.875828630424761e-09 -1.714537084503307e-09 -3.063360830933362e-09 2.088531141074589e-09 1.405919749998866e-09 -1.561581978622622e-09 -3.601121834524084e-10 7.335271627438556e-10 
5.150030006001201 5.785044776131552e-09 -2.031831064251559e-09 -3.631147757972436e-09 2.471160657904147e-09 1.664366102085611e-09 -1.843845717304106e-09 -4.261941859429787e-10 8.644942465546159e-10 
5.156031206241249 6.856261065917788e-09 -2.405169976311017e-09 -4.299406268773387e-09 2.920601125430123e-09 1.96811742688167e-09 -2.174637698930657e-09 -5.03834625423655e-10 1.017658025552001e-09 
5.162032406481297 8.116981103120899e-09 -2.843974362098666e-09 -5.085060192532178e-09 3.447934738907581e-09 2.324723081047465e-09 -2.561864105380546e-09 -5.94954110628804e-10 1.196574524065514e-09 
5.168033606721345 9.599133058163875e-09 -3.359162669097993e-09 -6.007731080836135e-09 4.065978566639853e-09 2.742920672551915e-09 -3.014642695717375e-09 -7.017744389375652e-10 1.405333792888086e-09 
5.174034806961393 1.133974081854315e-08 -3.96337534221404e-09 -7.090143016135793e-09 4.789539321662647e-09 3.232811700467734e-09 -3.543476218460532e-09 -8.268628981670019e-10 1.648634468278063e-09 
5.180036007201441 1.338169031174247e-08 -4.671230161420504e-09 -8.358584076153796e-09 5.635702857027992e-09 3.80606132724774e-09 -4.160448712507119e-09 -9.731826141410676e-10 1.931867863392935e-09 
5.186037207441489 1.577460350371306e-08 -5.499612844937552e-09 -9.843431776544598e-09 6.624162724341545e-09 4.476125330644636e-09 -4.879447441049968e-09 -1.144149700020272e-09 2.261212687314803e-09 
5.192038407681537 1.857583407244909e-08 -6.468007405224155e-09 -1.157975067223417e-08 7.777592621357257e-09 5.258507628579016e-09 -5.716413493001723e-09 -1.343698047974876e-09 2.643741595543369e-09 
5.198039607921585 2.185160041306014e-08 -7.59887126123509e-09 -1.360797124500982e-08 9.122068087841376e-09 6.171052150741516e-09 -6.689624402408417e-09 -1.576352696565657e-09 3.087540893233234e-09 
5.204040808161633 2.567827346218709e-08 -8.918060678803343e-09 -1.597466024884037e-08 1.068754339325904e-08 7.234273248302833e-09 -7.820012479798766e-09 -1.847312808787107e-09 3.60184483896747e-09 
5.210042008401681 3.014383885125853e-08 -1.045531273604617e-08 -1.873339383333196e-08 1.250839019896764e-08 8.47172929071903e-09 -9.131522922090087e-09 -2.162545406783498e-09 4.197186132908401e-09 
5.216043208641729 3.534955512665992e-08 -1.224479069700633e-08 -2.194574602842903e-08 1.462400527555831e-08 9.910444599328139e-09 -1.065151617131192e-08 -2.528891130451628e-09 4.885564319153334e-09 
5.222044408881777 4.141183222822773e-08 -1.432570042924551e-08 -2.568240655924224e-08 1.707949531697972e-08 1.158138541445652e-08 -1.241121942878991e-08 -2.954183419204901e-09 5.680633988431842e-09 
5.228045609121824 4.846435711458763e-08 -1.674298632499415e-08 -3.002444347855421e-08 1.992644772148018e-08 1.351999618945285e-08 -1.444623270234181e-08 -3.447382659825381e-09 6.597914834268172e-09 
5.234046809361872 5.666049638491512e-08 -1.954811608619074e-08 -3.506472776648072e-08 2.32237971097448e-08 1.576680315494768e-08 -1.679709527125691e-08 -4.018726999329721e-09 7.655025793720528e-09 
5.24004800960192 6.617600899312251e-08 -2.279996471704466e-08 -4.090953886285717e-08 2.703879832755427e-08 1.836809280333585e-08 -1.950991899912582e-08 -4.679901690896592e-09 8.871945693079656e-09 
5.246049209841968 7.721210570491019e-08 -2.656580913962918e-08 -4.768037207962363e-08 3.144811773864772e-08 2.137667371075881e-08 -2.263709550969042e-08 -5.444229023937801e-09 1.027130301969439e-08 
5.252050410082016 8.999889583447159e-08 -3.092244601471043e-08 -5.551597099976789e-08 3.653905575813744e-08 2.485273094560302e-08 -2.623808486747175e-08 -6.326881087145591e-09 1.187869765356538e-08 
5.258051610322064 1.047992660410778e-07 -3.59574466180597e-08 -6.45746103187577e-08 4.241091481278971e-08 2.886478321270627e-08 -3.038029407461347e-08 -7.345117826623594e-09 1.372305761661735e-08 
5.264052810562112 1.219132405927362e-07 -4.177056399862498e-08 -7.503665713684409e-08 4.917652824679921e-08 3.349075385514074e-08 -3.514005440965809e-08 -8.518553090819174e-09 1.583703413365483e-08 
5.27005401080216 1.416828775423182e-07 -4.847530913613343e-08 -8.710744147963685e-08 5.696396712542987e-08 3.881916788475216e-08 -4.06037073942463e-08 -9.869451600726925e-09 1.825743854686899e-08 
5.276055211042208 1.644977607399307e-07 -5.620071442914141e-08 -1.01020469823865e-07 6.591844342914072e-08 4.49504883427607e-08 -4.686880998123656e-08 -1.142306004852184e-08 2.102572488523966e-08 
5.282056411282256 1.908011535540507e-07 -6.509330458760354e-08 -1.170410186495989e-07 7.620442978261297e-08 5.199860650686695e-08 -5.404547041355861e-08 -1.32079758111802e-08 2.418852216100225e-08 
5.288057611522304 2.210968866243849e-07 -7.531929688422955e-08 -1.354701485441417e-07 8.800801763138049e-08 6.009250176566242e-08 -6.225782710809968e-08 -1.525655706850634e-08 2.779822074713999e-08 
5.294058811762352 2.559570589540642e-07 -8.70670547438749e-08 -1.566491831613381e-07 1.015395376683894e-07 6.937808837887485e-08 -7.164568387371069e-08 -1.760537843801373e-08 3.191361748210143e-08 
5.3000600120024 2.960306392011625e-07 -1.005498208277189e-07 -1.809647014085225e-07 1.170364683284056e-07 8.002026783718434e-08 -8.236631577736498e-08 -2.029573658297203e-08 3.660062444996869e-08 
5.306061212242448 3.420530621841928e-07 -1.160087581068016e-07 -2.08854095607199e-07 1.347666603141713e-07 9.220520713201496e-08 -9.45964610276567e-08 -2.337421061523572e-08 4.193304669529689e-08 
5.312062412482496 3.948569244086042e-07 -1.337163299254135e-07 -2.40811753068455e-07 1.550319073987197e-07 1.061428649476785e-07 -1.085345153498883e-07 -2.689328250174542e-08 4.799343445082223e-08 
5.318063612722544 4.553838918875508e-07 -1.539800527366045e-07 -2.773959235556763e-07 1.781718961670157e-07 1.22069789599177e-07 -1.244029464812966e-07 -3.091202309329429e-08 5.487401578202691e-08 
5.324064812962592 5.246979437071998e-07 -1.771466580573279e-07 -3.192363404909136e-07 2.045685699204785e-07 1.40252214462264e-07 -1.424509476173881e-07 -3.549684982663112e-08 6.267771588379003e-08 
5.33006601320264 6.040000857118905e-07 -2.03606703246939e-07 -3.670426695126281e-07 2.346509446727304e-07 1.609894786811327e-07 -1.629573498893252e-07 -4.072236260647091e-08 7.15192695994843e-08 
5.336067213442688 6.946446803951923e-07 -2.337996739671482e-07 -4.216138641265461e-07 2.689004180163944e-07 1.846178030961163e-07 -1.862338152457402e-07 -4.667226485261591e-08 8.152643407010898e-08 
5.342068413682736 7.981575516170871e-07 -2.682196246409934e-07 -4.838485147226685e-07 3.078566146404703e-07 2.115144536113895e-07 -2.126283324476237e-07 -5.34403771991266e-08 9.284130875837494e-08 
5.348069613922784 9.16256036162784e-07 -3.074214068994605e-07 -5.547562841740206e-07 3.521238154265586e-07 2.421023266227386e-07 -2.425290402587663e-07 -6.113175185712853e-08 1.056217704278358e-07 
5.354070814162832 1.050871168452329e-06 -3.520275398930873e-07 -6.354705305998997e-07 4.023780203499503e-07 2.76854993649336e-07 -2.763684033227903e-07 -6.986389620002794e-08 1.200430309876914e-07 
5.36007201440288 1.204172199938978e-06 -4.027357804576533e-07 -7.272622256804142e-07 4.593746988573597e-07 3.163022449618395e-07 -3.146277676564756e-07 -7.97681146990644e-08 1.362993264370416e-07 
5.366073214642928 1.378593670933915e-06 -4.603274554626662e-07 -8.315552851613323e-07 5.239572849847617e-07 3.610361747720351e-07 -3.578423241525879e-07 -9.099097892746513e-08 1.546057454551334e-07 
5.372074414882976 1.576865269800026e-06 -5.256766232427806e-07 -9.499434368985654e-07 5.970664782132401e-07 4.117178534459349e-07 -4.066065099676713e-07 -1.036959359619643e-07 1.75200206483262e-07 
5.378075615123024 1.802044732700958e-06 -5.997601358185657e-07 -1.084208760968474e-06 6.797504149334567e-07 4.690846352210535e-07 -4.615798791643815e-07 -1.180650661398192e-07 1.983455924259249e-07 
5.384076815363072 2.057554056404706e-06 -6.836686786562423e-07 -1.236342046020201e-06 7.731757793944661e-07 5.339581530470634e-07 -5.234934754761816e-07 -1.3430100177614e-07 2.243320523597896e-07 
5.39007801560312 2.347219317052151e-06 -7.786188699969873e-07 -1.408565116174278e-06 8.786399271427951e-07 6.072530554234743e-07 -5.931567415559573e-07 -1.526290191085005e-07 2.534794798749622e-07 
5.396079215843169 2.675314409336332e-06 -8.859665073048006e-07 -1.603355293380107e-06 9.975840982040419e-07 6.89986543473829e-07 -6.714650005498067e-07 -1.732993164112225e-07 2.861401778796149e-07 
5.402080416083217 3.046609043220345e-06 -1.00722105413583e-06 -1.823472171233836e-06 1.131607801611032e-06 7.832887699671383e-07 -7.594075472924034e-07 -1.96589491907923e-07 3.227017198716703e-07 
5.408081616323265 3.466421359169654e-06 -1.144061466718215e-06 -2.071986887824728e-06 1.282484457327441e-06 8.884141655667842e-07 -8.580763878395145e-07 -2.228072358050185e-07 3.635900178151338e-07 
5.414082816563313 3.940675547903302e-06 -1.298353465744663e-06 -2.352314097216824e-06 1.452178386139168e-06 1.006753761246249e-06 -9.686756674239295e-07 -2.522932514676245e-07 4.092726068487438e-07 
5.420084016803361 4.475964886887573e-06 -1.472168365313338e-06 -2.66824685167424e-06 1.642863242671376e-06 1.139848579549766e-06 -1.092531828229932e-06 -2.8542442145905e-07 4.602621570956529e-07 
5.426085217043409 5.079620633210399e-06 -1.667803577597072e-06 -3.023994619690503e-06 1.856941991318253e-06 1.289404171182652e-06 -1.231104539613888e-06 -3.226172348618087e-07 5.17120222829341e-07 
5.432086417283457 5.75978724108376e-06 -1.887804918665499e-06 -3.424224678268187e-06 2.097068529524436e-06 1.457306377277405e-06 -1.385998444539249e-06 -3.643314929872712e-07 5.804612391773259e-07 
5.438087617523505 6.525504402016873e-06 -2.134990847915826e-06 -3.874107131694088e-06 2.366171067508556e-06 1.645638401582575e-06 -1.558975767026702e-06 -4.110743112578448e-07 6.509567764046453e-07 
5.444088817763553 7.386796436670789e-06 -2.41247878076978e-06 -4.379363823242339e-06 2.667477378144837e-06 1.856699280745113e-06 -1.751969826327052e-06 -4.634044357045472e-07 7.293400616076749e-07 
5.450090018003601 8.354769599522285e-06 -2.72371362164838e-06 -4.946321420782879e-06 3.004542035290175e-06 2.093023844784584e-06 -1.967099504287168e-06 -5.219368931581593e-07 8.164107773596639e-07 
5.456091218243649 9.441717890701593e-06 -3.072498671721056e-06 -5.581968972140821e-06 3.381275763331006e-06 2.3574042637686e-06 -2.206684712978924e-06 -5.873479948175895e-07 9.130401464763521e-07 
5.462092418483697 1.066123800368371e-05 -3.463029073517394e-06 -6.294020241202949e-06 3.801977025093181e-06 2.652913280570298e-06 -2.473262910077202e-06 -6.603807134478032e-07 1.020176311607195e-06 
5.468093618723745 1.20283540728591e-05 -3.899927962160925e-06 -7.09098115115458e-06 4.271365979473545e-06 2.982929233395887e-06 -2.769606709684863e-06 -7.41850454984515e-07 1.138850017799166e-06 
5.474094818963793 1.355965292132491e-05 -4.388285500704663e-06 -7.982222676801837e-06 4.794620944175035e-06 3.351162975486131e-06 -3.09874263628857e-06 -8.326512457960569e-07 1.270180605519797e-06 
5.480096019203841 1.527343054645373e-05 -4.933700984783763e-06 -8.978059543631747e-06 5.37741750271702e-06 3.761686802991195e-06 -3.463971069267059e-06 -9.337623572663047e-07 1.415382320858585e-06 
5.486097219443889 1.718985061882891e-05 -5.542328209514643e-06 -1.008983510702205e-05 6.025970398405517e-06 4.218965505461942e-06 -3.868887424840261e-06 -1.046255389707667e-06 1.575770948745381e-06 
5.492098419683937 1.933111580889193e-05 -6.220924299221438e-06 -1.133001280076168e-05 6.747078361137257e-06 4.727889656659397e-06 -4.317404621520101e-06 -1.171301837880816e-06 1.752770774025877e-06 
5.498099619923985 2.172165279501733e-05 -6.976902208115934e-06 -1.271227455970386e-05 7.548172015728553e-06 5.293811266421636e-06 -4.813776873978665e-06 -1.310181160578729e-06 1.947921874112817e-06 
5.504100820164033 2.438831184659688e-05 -7.818387107447577e-06 -1.425162663686102e-05 8.437365022852972e-06 5.922581917106186e-06 -5.362624858762665e-06 -1.464289376816872e-06 2.162887745682526e-06 
5.510102020404081 2.736058191594033e-05 -8.754276881825135e-06 -1.596451325047163e-05 9.423508605587397e-06 6.62059351060615e-06 -5.968962293431225e-06 -1.635148211148648e-06 2.39946326650602e-06 
5.516103220644129 3.067082221323444e-05 -9.794306964334983e-06 -1.786893851142411e-05 1.051624961594808e-05 7.394821754077139e-06 -6.638223968453294e-06 -1.824414810485387e-06 2.659582991988511e-06 
5.522104420884177 3.435451127928487e-05 -1.094911974668415e-05 -1.998459709580338e-05 1.17260922965883e-05 8.252872514266649e-06 -7.376295268548441e-06 -2.033892054532041e-06 2.945329784337985e-06 
5.528105621124225 3.845051461111147e-05 -1.223033880681644e-05 -2.23330141411187e-05 1.306446389296776e-05 9.203031171660676e-06 -8.189543217067354e-06 -2.265539481542727e-06 3.258943770490513e-06 
5.534106821364273 4.300137193548491e-05 -1.365064820222044e-05 -2.493769485785166e-05 1.454378427072918e-05 1.025431510650694e-05 -9.084849073464101e-06 -2.52148485054286e-06 3.602831622985466e-06 
5.540108021604321 4.80536052649667e-05 -1.522387708239965e-05 -2.782428436020472e-05 1.617753969166595e-05 1.141652944909057e-05 -1.006964250989027e-05 -2.804036360445825e-06 3.97957615590765e-06 
5.546109221844369 5.365804890971918e-05 -1.696508987863168e-05 -3.102073823119156e-05 1.798036089947324e-05 1.270032622637564e-05 -1.115193738842137e-05 -3.115695545600624e-06 4.391946225795553e-06 
5.552110422084417 5.987020265603779e-05 -1.889068233313231e-05 -3.455750434735041e-05 1.996810566337679e-05 1.411726703623213e-05 -1.23403691553899e-05 -3.459170866231219e-06 4.842906925057175e-06 
5.558111622324465 6.675060935896769e-05 -2.101848363297594e-05 -3.84677164972268e-05 2.215794592366476e-05 1.567988937888956e-05 -1.36442338637296e-05 -3.837392010957499e-06 5.335630052939456e-06 
5.564112822564513 7.43652582312173e-05 -2.336786491652854e-05 -4.27874003352051e-05 2.456845967804226e-05 1.740177677294113e-05 -1.507352882811867e-05 -4.253524927110961e-06 5.873504846467581e-06 
5.570114022804561 8.278601514358054e-05 -2.595985442163225e-05 -4.755569221810366e-05 2.721972774151943e-05 1.929763278011247e-05 -1.663899491103015e-05 -4.710987592864376e-06 6.460148951011872e-06 
5.576115223044609 9.209108128291166e-05 -2.881725954525581e-05 -5.281507147601621e-05 3.013343550516874e-05 2.138335905904847e-05 -1.835216043054799e-05 -5.213466543274156e-06 7.09941960725746e-06 
5.582116423284657 0.0001023654815420357 -3.196479608370151e-05 -5.861160667100913e-05 3.333297981048052e-05 2.367613756351005e-05 -2.022538667297666e-05 -5.764934160176468e-06 7.795425028353908e-06 
5.588117623524705 0.0001137015840414798 -3.542922492064419e-05 -6.499521639727973e-05 3.684358104614681e-05 2.619451699455062e-05 -2.227191498485838e-05 -6.369666733474947e-06 8.552535937916539e-06 
5.594118823764753 0.0001261996522052143 -3.923949642717458e-05 -7.201994517407248e-05 4.069240056285378e-05 2.895850360940785e-05 -2.450591541001131e-05 -7.032263298699952e-06 9.375397236348268e-06 
5.600120024004801 0.0001399684308313236 -4.342690283353813e-05 -7.974425497783714e-05 4.49086634890011e-05 3.198965648194713e-05 -2.694253682761731e-05 -7.757665252799722e-06 1.026893975966252e-05 
