# Energy: -40.12359007725608
# J: 1
# M: 1
# Lmin: 1
# Lmax: 9
# grid size: 5000
# h: 0.006001200240048009
5 0 0 0 0 0 0 0 0 
5.006001200240048 3.507001861445472e-11 -1.259847853280239e-11 -2.240757657987306e-11 1.577778767103627e-11 1.051883186639254e-11 -1.223525817350599e-11 -2.704112341469189e-12 5.938708568855844e-12 
5.012002400480096 7.146968497174513e-11 -2.566902446253117e-11 -4.565631163547636e-11 3.213721152709449e-11 2.142711849562194e-11 -2.49117129590377e-11 -5.508010972817195e-12 1.208713180686164e-11 
5.018003600720144 1.105464321323742e-10 -3.968994627604427e-11 -7.059859088664988e-11 4.966756729568212e-11 3.311954548970266e-11 -3.84764233349089e-11 -8.51285529847103e-12 1.865788727523901e-11 
5.024004800960192 1.537112881115605e-10 -5.516179944777391e-11 -9.812661868013219e-11 6.898509337731835e-11 4.600901456451485e-11 -5.339648396976971e-11 -1.182448583938003e-11 2.587301450361423e-11 
5.03000600120024 2.024873924962748e-10 -7.262433503939068e-11 -1.292026945147706e-10 9.075338490061237e-11 6.054039219144794e-11 -7.017402662455891e-11 -1.555692646063733e-11 3.397087768709693e-11 
5.036007201440288 2.585599349822962e-10 -9.267393293003938e-11 -1.648903674399989e-10 1.157043809992342e-10 7.720465626748485e-11 -8.936164200888523e-11 -1.983599077804434e-11 4.321327353365849e-11 
5.042008401680336 3.238291247775122e-10 -1.159820697451891e-10 -2.063874537377442e-10 1.446605671149544e-10 9.655387571556807e-11 -1.115786714852581e-10 -2.480310226025371e-11 5.389293854127125e-11 
5.048009601920384 4.004677728185119e-10 -1.43315362063423e-10 -2.550618869573428e-10 1.785590232999092e-10 1.1921745127723e-10 -1.375288114913537e-10 -3.061943606668159e-11 6.634164894833417e-11 
5.054010802160432 4.909850934907188e-10 -1.755577331720877e-10 -3.124913838989979e-10 2.184779578027179e-10 1.45920052147726e-10 -1.680194794064844e-10 -3.747049240735049e-11 8.093911013262577e-11 
5.06001200240048 5.982984042483279e-10 -2.137352749318704e-10 -3.805079527162891e-10 2.656663909525296e-10 1.775017013812405e-10 -2.039834067931993e-10 -4.55712159012195e-11 9.812284010730972e-11 
5.066013202640528 7.258145172653661e-10 -2.590444142043833e-10 -4.612483381780103e-10 3.21577696394372e-10 2.149404924393263e-10 -2.465029538184447e-10 -5.517178286973914e-11 1.183992638216171e-10 
5.072014402880576 8.775227755998276e-10 -3.128840452901636e-10 -5.572115934180449e-10 3.879077644818907e-10 2.59378459497295e-10 -2.968376768157809e-10 -6.656418864297429e-11 1.423562511330853e-10 
5.078015603120624 1.058101887182193e-09 -3.768923558208295e-10 -6.71325087071377e-10 4.666386259343418e-10 3.121511750835326e-10 -3.564557292565755e-10 -8.008977975899698e-11 1.706773515591284e-10 
5.084016803360672 1.273042954207438e-09 -4.529891538029623e-10 -8.070204000409312e-10 5.600884629175857e-10 3.748217104823571e-10 -4.270697349359254e-10 -9.614789144713482e-11 2.041580032826907e-10 
5.09001800360072 1.528791385141507e-09 -5.434245985846752e-10 -9.683207383168947e-10 6.709690400405019e-10 4.49219667482042e-10 -5.106778412193527e-10 -1.152057690996547e-10 2.437240224825285e-10 
5.096019203840768 1.832910714348375e-09 -6.508353492471883e-10 -1.159941688832385e-09 8.024517101831039e-10 5.374860750962639e-10 -6.096107401777984e-10 -1.378099737002786e-10 2.904527120396877e-10 
5.102020404080816 2.194271743913048e-09 -7.78309271406002e-10 -1.387407376304796e-09 9.582432906672448e-10 6.42125042613619e-10 -7.265855369509252e-10 -1.645994955812898e-10 3.455969662437416e-10 
5.108021604320864 2.623270867963779e-09 -9.29459988972159e-10 -1.65718434283717e-09 1.14267326536546e-09 7.660631716924362e-10 -8.647674484502745e-10 -1.963208286547042e-10 4.106127905363993e-10 
5.114022804560912 3.132081946821674e-09 -1.108512732637708e-09 -1.976835771618185e-09 1.360793949469906e-09 9.127178563380287e-10 -1.027840432400786e-09 -2.338452886768706e-10 4.87190702879024e-10 
5.12002400480096 3.734946672516848e-09 -1.320403123501968e-09 -2.355199014660235e-09 1.61849545758626e-09 1.086075741758196e-09 -1.220087977698715e-09 -2.781888944675411e-10 5.772915363457171e-10 
5.126025205041008 4.448509015253634e-09 -1.570890740364269e-09 -2.802589765867541e-09 1.922637544570502e-09 1.290782772729875e-09 -1.446485433227864e-09 -3.305351706585118e-10 6.831872213916727e-10 
5.132026405281056 5.292200069705209e-09 -1.866689555021408e-09 -3.331036648969061e-09 2.28120064429975e-09 1.532247440823048e-09 -1.71280541482637e-09 -3.922612748745838e-10 8.075071913270187e-10 
5.138027605521104 6.288680438793869e-09 -2.215617583904267e-09 -3.954550469555806e-09 2.703458716788873e-09 1.816759039374202e-09 -2.02573801034128e-09 -4.649679016686702e-10 9.532911262686464e-10 
5.144028805761153 7.464348209922554e-09 -2.626768399288262e-09 -4.689432916647472e-09 3.200176831377443e-09 2.151622957399475e-09 -2.393027702059187e-09 -5.505134704979259e-10 1.124048829703388e-09 
5.150030006001201 8.849921604392282e-09 -3.110707472084098e-09 -5.55463009735829e-09 3.783836765982329e-09 2.54531529076995e-09 -2.823629145769327e-09 -6.510531660303311e-10 1.32382811825641e-09 
5.156031206241249 1.048110652580525e-08 -3.679696684082282e-09 -6.572136954295817e-09 4.468894292728812e-09 3.007659323189269e-09 -3.327884187908893e-09 -7.690834666400588e-10 1.55729169982166e-09 
5.162032406481297 1.239936050940575e-08 -4.347950753975616e-09 -7.767459355764088e-09 5.272072251952322e-09 3.550026733239301e-09 -3.917722768359792e-09 -9.074928716515952e-10 1.829804118397705e-09 
5.168033606721345 1.46527659943445e-08 -5.131929772281361e-09 -9.170141470626619e-09 6.21269399314801e-09 4.185566719589774e-09 -4.606890648302637e-09 -1.069619620331135e-09 2.147529956318358e-09 
5.174034806961393 1.729702741860817e-08 -6.050672539475816e-09 -1.081436695032196e-08 7.313062286710563e-09 4.929466607178e-09 -5.411207221962058e-09 -1.259317286441257e-09 2.5175446066203e-09 
5.180036007201441 2.03966083867763e-08 -7.126175953578115e-09 -1.273964344807735e-08 8.598889388259825e-09 5.799247905711079e-09 -6.348857020052509e-09 -1.481029232050958e-09 2.947959060603093e-09 
5.186037207441489 2.402602709994116e-08 -8.383826302718577e-09 -1.499158111846815e-08 1.009978457222708e-08 6.815102241362963e-09 -7.440718893281334e-09 -1.739873013944759e-09 3.448060298766717e-09 
5.192038407681537 2.827133038233809e-08 -9.852888989850358e-09 -1.762277696834743e-08 1.184980614765326e-08 8.000272076355919e-09 -8.710737278478585e-09 -2.041735956155391e-09 4.028469027810098e-09 
5.198039607921585 3.323176900901118e-08 -1.156706395597849e-08 -2.069381828264892e-08 1.388808573152114e-08 9.38148167273425e-09 -1.018634039994604e-08 -2.393383233643625e-09 4.701316672784602e-09 
5.204040808161633 3.902169965300166e-08 -1.356511488067658e-08 -2.427441983609703e-08 1.625953338832873e-08 1.09894243497472e-08 -1.189891074664344e-08 -2.802579955789104e-09 5.480443712346064e-09 
5.210042008401681 4.577274165023914e-08 -1.589158113015263e-08 -2.84447112355142e-08 1.901563315414674e-08 1.285931273272319e-08 -1.388431369407965e-08 -3.278228894993215e-09 6.381621636841974e-09 
5.216043208641729 5.363621994805961e-08 -1.859758239995477e-08 -3.329669252891222e-08 2.221533945442795e-08 1.503149939918071e-08 -1.618349071049103e-08 -3.830525676213468e-09 7.422801014179839e-09 
5.222044408881777 6.278592908298642e-08 -2.174172706814564e-08 -3.893587817924095e-08 2.592608600288381e-08 1.755217609939252e-08 -1.8843124202309e-08 -4.47113342856038e-09 8.624388367481831e-09 
5.228045609121824 7.342125685044761e-08 -2.539113644231593e-08 -4.548315164553836e-08 3.022491993951797e-08 2.047416056806477e-08 -2.191638171626763e-08 -5.213379101126802e-09 1.000955480182327e-08 
5.234046809361872 8.577071051026631e-08 -2.962259835737005e-08 -5.307685515590207e-08 3.519977523527406e-08 2.385778085572802e-08 -2.546374792696233e-08 -6.072473862938421e-09 1.160457956520301e-08 
5.24004800960192 1.00095892945323e-07 -3.452386496812823e-08 -6.187514180943201e-08 4.095090076470655e-08 2.777186809751097e-08 -2.955395360136868e-08 -7.065760242279284e-09 1.343923199155643e-08 
5.246049209841968 1.166959811865021e-07 -4.019511108927405e-08 -7.205861992292904e-08 4.759245993271691e-08 3.229486970794343e-08 -3.426501154779468e-08 -8.212988914631264e-09 1.554719555126748e-08 
5.252050410082016 1.359127651660897e-07 -4.675057107314922e-08 -8.383332255810326e-08 5.525432034288515e-08 3.751609614817553e-08 -3.968537042789819e-08 -9.536628322044632e-09 1.79665380273437e-08 
5.258051610322064 1.581363104968701e-07 -5.432037399173215e-08 -9.743403844233379e-08 6.408405371946775e-08 4.353711566143533e-08 -4.591519823851628e-08 -1.106221060089623e-08 2.074023214315485e-08 
5.264052810562112 1.838113155293359e-07 -6.305259881144482e-08 -1.13128044047112e-07 7.424916814892407e-08 5.047331271865912e-08 -5.306780825672508e-08 -1.28187176106421e-08 2.391673129025012e-08 
5.27005401080216 2.134442399501452e-07 -7.311557332704279e-08 -1.312192804301439e-07 8.593959669601688e-08 5.845562736400716e-08 -6.12712412881514e-08 -1.483901119425842e-08 2.755060534197301e-08 
5.276055211042208 2.476112897880011e-07 -8.470044286275118e-08 -1.520530225970326e-07 9.937046858013517e-08 6.763249420439879e-08 -7.067001916620629e-08 -1.716031216247719e-08 3.170324188994572e-08 
5.282056411282256 2.869673519265079e-07 -9.80240371641444e-08 -1.760210936141878e-07 1.147851913753744e-07 7.817200145317046e-08 -8.142708561944132e-08 -1.98247328795014e-08 3.644361860539029e-08 
5.288057611522304 3.322559801264537e-07 -1.133320665022593e-07 -2.035676805240427e-07 1.324588751287156e-07 9.026429222029485e-08 -9.372595185611442e-08 -2.2879868738408e-08 4.184915280490486e-08 
5.294058811762352 3.843205441725404e-07 -1.309026808013268e-07 -2.351958142948973e-07 1.527021318796957e-07 1.041242321449462e-07 -1.077730655093977e-07 -2.637945425061887e-08 4.800663468973102e-08 
5.3000600120024 4.441166641229711e-07 -1.510504285925299e-07 -2.714745815988844e-07 1.758652868172033e-07 1.199943694950135e-07 -1.238004229431271e-07 -3.038408993625558e-08 5.501325112753175e-08 
5.306061212242448 5.127260627963059e-07 -1.741306557975027e-07 -3.130471421707562e-07 2.023430402289571e-07 1.381482160166328e-07 -1.420684463357494e-07 -3.496204669139489e-08 6.297770725481741e-08 
5.312062412482496 5.913719816210161e-07 -2.005443877658189e-07 -3.606396318752878e-07 2.325796224907655e-07 1.588938791087865e-07 -1.628691484378215e-07 -4.019015482459438e-08 7.202145359472967e-08 
5.318063612722544 6.814363178419412e-07 -2.307437416392247e-07 -4.15071038419655e-07 2.670744876090811e-07 1.825780783269863e-07 -1.865296094340866e-07 -4.615478549879588e-08 8.22800268069808e-08 
5.324064812962592 7.844786548672182e-07 -2.65237920000207e-07 -4.77264143906158e-07 3.063885942742214e-07 2.095905817889759e-07 -2.134157919321956e-07 -5.295293288591536e-08 9.390451261212858e-08 
5.33006601320264 9.02257372291942e-07 -3.045998408916334e-07 -5.482576361465566e-07 3.511513270045726e-07 2.403691007667663e-07 -2.439367217432443e-07 -6.069340593997811e-08 1.070631398585396e-07 
5.336067213442688 1.036753037892996e-06 -3.494734636750165e-07 -6.292194988674739e-07 4.020681137648082e-07 2.754046836049046e-07 -2.785490638103905e-07 -6.949813932024915e-08 1.219430151245385e-07 
5.342068413682736 1.190194300694755e-06 -4.005818748342322e-07 -7.214617996412696e-07 4.599288004232961e-07 3.152476531058382e-07 -3.177621243759968e-07 -7.950363364788513e-08 1.387520076672323e-07 
5.348069613922784 1.365086522097918e-06 -4.587362027351905e-07 -8.264570035915856e-07 5.25616846573737e-07 3.605141346698332e-07 -3.621433122492597e-07 -9.086253595741199e-08 1.577207949398788e-07 
5.354070814162832 1.564243401082588e-06 -5.248454355251134e-07 -9.458559506589532e-07 6.001194115807783e-07 4.118932257685171e-07 -4.123240938383997e-07 -1.037453719067261e-07 1.791050792976474e-07 
5.36007201440288 1.790821869678566e-06 -5.999272218016843e-07 -1.081507644479241e-06 6.845384042143797e-07 4.701548607661649e-07 -4.690064784365421e-07 -1.183424420349607e-07 2.03187986893061e-07 
5.366073214642928 2.048360556275275e-06 -6.851197394052649e-07 -1.235481011733975e-06 7.801025739070424e-07 5.361584286785203e-07 -5.329700720896497e-07 -1.348658951047451e-07 2.30282660122844e-07 
5.372074414882976 2.340822136952486e-06 -7.816947236880489e-07 -1.410088802182032e-06 8.881807264937503e-07 6.108622051713719e-07 -6.050797402184975e-07 -1.535519923320631e-07 2.60735055322489e-07 
5.378075615123024 2.672639918878891e-06 -8.910717528924162e-07 -1.607913811479589e-06 1.010296152266998e-06 6.953336639449369e-07 -6.862939210036516e-07 -1.746635770906539e-07 2.949269577084437e-07 
5.384076815363072 3.048769024973421e-06 -1.014833894825154e-06 -1.83183762133915e-06 1.14814235928665e-06 7.907607366186414e-07 -7.776736333607785e-07 -1.984927654758631e-07 3.332792258348683e-07 
5.39007801560312 3.474742575472975e-06 -1.154744825841047e-06 -2.085072064565517e-06 1.303600210112792e-06 8.984640943158033e-07 -8.803922251197531e-07 -2.253638739217737e-07 3.7625527805662e-07 
5.396079215843169 3.956733289814852e-06 -1.312767540242962e-06 -2.371193636029303e-06 1.478756565462823e-06 1.0199105283391e-06 -9.957459087606609e-07 -2.556366008816286e-07 4.243648336662641e-07 
5.402080416083217 4.501620961331385e-06 -1.49108477555825e-06 -2.694181084685933e-06 1.675924543712986e-06 1.156727511613766e-06 -1.125165133736786e-06 -2.897094804007912e-07 4.781679214940675e-07 
5.408081616323265 5.117066287669603e-06 -1.692121286752682e-06 -3.058456436304305e-06 1.897665510648189e-06 1.310719026942537e-06 -1.270226846012082e-06 -3.280236262291023e-07 5.382791688193051e-07 
5.414082816563313 5.811591571585649e-06 -1.918568110280666e-06 -3.468929711614313e-06 2.146812919387951e-06 1.483882752548816e-06 -1.432667686939923e-06 -3.710667859302839e-07 6.053723834318235e-07 
5.420084016803361 6.594668839808792e-06 -2.17340896692819e-06 -3.931047620090474e-06 2.426498125954013e-06 1.678428699864577e-06 -1.614398184991451e-06 -4.193777252442723e-07 6.801854415973592e-07 
5.426085217043409 7.476815962001303e-06 -2.459948960664772e-06 -4.450846525529733e-06 2.740178311466441e-06 1.896799403027133e-06 -1.817517995084631e-06 -4.735509637377346e-07 7.63525494511222e-07 
5.432086417283457 8.469701387427085e-06 -2.78184573916032e-06 -5.035009995917437e-06 3.091666647427129e-06 2.141691764061697e-06 -2.044332241346838e-06 -5.342418835317104e-07 8.56274505564984e-07 
5.438087617523505 9.586258153741483e-06 -3.143143290217749e-06 -5.690931266764689e-06 3.485164845936354e-06 2.416080662220121e-06 -2.297369020041302e-06 -6.021722336158822e-07 9.593951303920418e-07 
5.444088817763553 1.084080786027554e-05 -3.548308557093484e-06 -6.426780964092405e-06 3.925298241950054e-06 2.723244440392758e-06 -2.579398120076024e-06 -6.781360529384057e-07 1.073936951192623e-06 
5.450090018003601 1.224919533724362e-05 -4.002271064493403e-06 -7.251580450476346e-06 4.41715355978044e-06 3.066792385880539e-06 -2.893451018967686e-06 -7.630060360899756e-07 1.201043076259167e-06 
5.456091218243649 1.382893478237825e-05 -4.510465755905267e-06 -8.175281174989051e-06 4.966319520924204e-06 3.450694327075536e-06 -3.242842212325494e-06 -8.577403659716294e-07 1.341957114921334e-06 
5.462092418483697 1.559936817749761e-05 -5.078879251820008e-06 -9.20885042540861e-06 5.578930454922008e-06 3.879312471715453e-06 -3.631191934823539e-06 -9.633900383380534e-07 1.498030537298534e-06 
5.468093618723745 1.758183683933463e-05 -5.714099747258978e-06 -1.036436389862931e-05 6.261713079257497e-06 4.357435616312916e-06 -4.062450330216671e-06 -1.081106703531464e-06 1.670730427279481e-06 
5.474094818963793 1.979986700148165e-05 -6.423370775814065e-06 -1.165510552271994e-05 7.022036618237642e-06 4.890315860073296e-06 -4.540923127194993e-06 -1.212151051054741e-06 1.861647636035704e-06 
5.480096019203841 2.22793703673944e-05 -7.214649076068793e-06 -1.309567498143461e-05 7.867966434300658e-06 5.48370796006256e-06 -5.071298876736399e-06 -1.357901762864904e-06 2.072505342112362e-06 
5.486097219443889 2.504886061789963e-05 -8.09666680474466e-06 -1.470210340908391e-05 8.808321348209267e-06 6.143911467522465e-06 -5.658677805075064e-06 -1.519865061387581e-06 2.305168022718803e-06 
5.492098419683937 2.813968690039399e-05 -9.078998349144972e-06 -1.649197774040713e-05 9.852734827042291e-06 6.877815788006702e-06 -6.308602334426846e-06 -1.699684878247281e-06 2.561650839257239e-06 
5.498099619923985 3.158628537071574e-05 -1.017213199938195e-05 -1.84845742163273e-05 1.101172022072677e-05 7.692948310376233e-06 -7.027089321169186e-06 -1.899153669564575e-06 2.844129438375469e-06 
5.504100820164033 3.542644990231204e-05 -1.138754674840136e-05 -2.070100156208672e-05 1.229674022898608e-05 8.597525751592411e-06 -7.820664058234489e-06 -2.120223903376479e-06 3.154950167904276e-06 
5.510102020404081 3.970162312058338e-05 -1.27377944948853e-05 -2.316435436911199e-05 1.372028078094369e-05 9.600508865625536e-06 -8.696396085012432e-06 -2.36502024427706e-06 3.496640704938116e-06 
5.516103220644129 4.445720896292023e-05 -1.423658793063843e-05 -2.589987722589218e-05 1.529592950914127e-05 1.071166066559705e-05 -9.661936844039184e-06 -2.635852459738164e-06 3.871921091036596e-06 
5.522104420884177 4.97429080066869e-05 -1.589889439996147e-05 -2.893514015601349e-05 1.703845899832624e-05 1.194160830843397e-05 -1.072555921915311e-05 -2.935229071741027e-06 4.283715167061683e-06 
5.528105621124225 5.561307684796994e-05 -1.774103602369744e-05 -3.230022593311054e-05 1.896391498696023e-05 1.330190879077418e-05 -1.189619898459077e-05 -3.26587177631499e-06 4.735162397521453e-06 
5.534106821364273 6.212711285298355e-05 -1.978079638500962e-05 -3.602792985268941e-05 2.108970969591353e-05 1.480511860355462e-05 -1.318349818865884e-05 -3.630730652325572e-06 5.22963007146556e-06 
5.540108021604321 6.934986564129067e-05 -2.203753407741596e-05 -4.015397254936544e-05 2.343472045416336e-05 1.646486749057841e-05 -1.45978504891244e-05 -4.033000179366864e-06 5.770725863972722e-06 
5.546109221844369 7.735207669510144e-05 -2.453230341806487e-05 -4.471722645484825e-05 2.601939378542232e-05 1.829593645332409e-05 -1.61504484502968e-05 -4.476136082879669e-06 6.362310739089226e-06 
5.552110422084417 8.621084852148726e-05 -2.728798263058303e-05 -4.975995649679e-05 2.88658551124072e-05 2.031434014026307e-05 -1.785333280391239e-05 -4.96387302262334e-06 7.008512171724733e-06 
5.558111622324465 9.601014482400949e-05 -3.032940980195338e-05 -5.532807564118866e-05 3.199802422683922e-05 2.253741375392448e-05 -1.971944366736054e-05 -5.500243138363343e-06 7.713737662493746e-06 
5.564112822564513 0.0001068413231665984 -3.368352691668015e-05 -6.147141588118483e-05 3.544173666316128e-05 2.49839046028208e-05 -2.176267370349719e-05 -6.089595464086444e-06 8.482688515815802e-06 
5.570114022804561 0.0001188037016351047 -3.737953226885154e-05 -6.8244015272589e-05 3.922487110229488e-05 2.767406841805712e-05 -2.399792319626932e-05 -6.736616219209269e-06 9.32037384776442e-06 
5.576115223044609 0.0001320051610203389 -4.144904154851092e-05 -7.570442161110107e-05 4.337748291845855e-05 3.062977054592585e-05 -2.644115700561719e-05 -7.44634998209348e-06 1.023212478619593e-05 
5.582116423284657 0.0001465627840601495 -4.592625789287303e-05 -8.391601333770281e-05 4.793194396706438e-05 3.38745921179714e-05 -2.910946335362997e-05 -8.224221747712778e-06 1.122360882160704e-05 
5.588117623524705 0.0001626035332866881 -5.084815118526098e-05 -9.294733824688138e-05 5.292308869493213e-05 3.743394128883514e-05 -3.202111438170889e-05 -9.07605986752435e-06 1.230084426297992e-05 
5.594118823764753 0.0001802649690279843 -5.625464687507435e-05 -0.0001028724705569479 5.838836663544412e-05 4.133516961959904e-05 -3.519562840555022e-05 -1.000811986547437e-05 1.34702147485935e-05 
5.600120024004801 0.000199696009109792 -6.218882458051426e-05 -0.0001137713868825055 6.436800133076086e-05 4.560769367027803e-05 -3.865383378111134e-05 -1.102710911960716e-05 1.473848375742624e-05 
