# Energy: -23.83154424196569
# J: 1
# M: 0
# Lmin: 0
# Lmax: 8
# grid size: 5000
# h: 0.006001200240048009
5 0 0 0 0 0 0 0 0 
5.006001200240048 5.680456435333191e-11 -1.668343375945301e-11 -5.026838933710083e-11 2.881984644169349e-11 2.817502852845472e-11 -2.647398412379872e-11 -9.177730394729027e-12 1.447803082027487e-11 
5.012002400480096 1.157575084157824e-10 -3.399179360896441e-11 -1.024277514326233e-10 5.870769896983312e-11 5.739920107355819e-11 -5.391285370683213e-11 -1.86950114435254e-11 2.947502623263993e-11 
5.018003600720144 1.790352385131895e-10 -5.255806237585968e-11 -1.583937389048554e-10 9.074532803559529e-11 8.873545284845834e-11 -8.329406246934668e-11 -2.889595622425203e-11 4.551698332885261e-11 
5.024004800960192 2.489158949194321e-10 -7.304444065768584e-11 -2.201710782006427e-10 1.260638947071243e-10 1.232957240145809e-10 -1.156390546872018e-10 -4.014052241160289e-11 6.315338984049577e-11 
5.03000600120024 3.278574015193978e-10 -9.616475107014081e-11 -2.89921752252818e-10 1.658816643036317e-10 1.622782418656087e-10 -1.520465238394592e-10 -5.281645712172641e-11 8.297465133479553e-11 
5.036007201440288 4.185777164282066e-10 -1.227074592670991e-10 -3.700350977190439e-10 2.115427477672806e-10 2.070058512957466e-10 -1.937265796076909e-10 -6.735158595001761e-11 1.056300218482914e-10 
5.042008401680336 5.241398595509748e-10 -1.53560038299621e-10 -4.632020432775704e-10 2.645580676666335e-10 2.58966584660509e-10 -2.420368401879524e-10 -8.422682103656568e-11 1.318465444710339e-10 
5.048009601920384 6.48044244186701e-10 -1.897353886635338e-10 -5.724956736880819e-10 3.266497227288146e-10 3.198576411353514e-10 -2.985214493028272e-10 -1.039902572274141e-10 1.624495036084531e-10 
5.054010802160432 7.943308735111038e-10 -2.324010349296234e-10 -7.014603328749552e-10 3.997999381320911e-10 3.916339610144467e-10 -3.649540287847487e-10 -1.272727307167818e-10 1.983848986266972e-10 
5.06001200240048 9.676940711946003e-10 -2.829118489699421e-10 -8.542115714660626e-10 4.863058350178105e-10 4.765626287219192e-10 -4.433856155377665e-10 -1.54805229977e-10 2.407444685224968e-10 
5.066013202640528 1.173612593559233e-09 -3.428470980927792e-10 -1.035549395799736e-09 5.888413295712867e-10 5.772844174923156e-10 -5.361986943506449e-10 -1.87438573684645e-10 2.907938286008288e-10 
5.072014402880576 1.418498216014433e-09 -4.140526831318308e-10 -1.251087484198909e-09 7.105275783428964e-10 6.968838975767457e-10 -6.461685244409968e-10 -2.261658044018546e-10 3.500043225806716e-10 
5.078015603120624 1.709866198524601e-09 -4.986895164992104e-10 -1.507401301802284e-09 8.550135218348093e-10 8.389696681461203e-10 -7.765330673868106e-10 -2.721477898864095e-10 4.200892469848509e-10 
5.084016803360672 2.056531414769481e-09 -5.992890936661697e-10 -1.812198368380554e-09 1.026568243076522e-09 1.007766441211274e-09 -9.310729574041569e-10 -3.267425762093631e-10 5.030451692033426e-10 
5.09001800360072 2.468834380190639e-09 -7.188174341410652e-10 -2.174514316555915e-09 1.230187052880465e-09 1.208220904906067e-09 -1.11420311237063e-09 -3.915390986659476e-10 6.011991365256242e-10 
5.096019203840768 2.95890193935915e-09 -8.60748710790447e-10 -2.604938824018981e-09 1.471713440179846e-09 1.446123524987441e-09 -1.331077766588821e-09 -4.683959282497929e-10 7.172626611513611e-10 
5.102020404080816 3.540947978383428e-09 -1.029150050642537e-09 -3.115876017067794e-09 1.757979286271055e-09 1.728248709509524e-09 -1.587710915409476e-09 -5.594858138477753e-10 8.54393466289399e-10 
5.108021604320864 4.231620219912759e-09 -1.228779177774507e-09 -3.72184452942083e-09 2.096966038335829e-09 2.062516064916763e-09 -1.891114399196295e-09 -6.673468740678173e-10 1.01626609165487e-09 
5.114022804560912 5.050399944329422e-09 -1.465196781459379e-09 -4.439823066056921e-09 2.497989873159236e-09 2.458175815316497e-09 -2.249456121725791e-09 -7.949413986314702e-10 1.20715258380723e-09 
5.12002400480096 6.020062369728902e-09 -1.744895732662596e-09 -5.289648074002847e-09 2.971914259757939e-09 2.926021843915977e-09 -2.672241198275489e-09 -9.457233385707689e-10 1.432014638785375e-09 
5.126025205041008 7.167206425154528e-09 -2.075449541740781e-09 -6.294470968629324e-09 3.531393753363566e-09 3.478636250457548e-09 -3.170519163935653e-09 -1.12371569821225e-09 1.696608722441424e-09 
5.132026405281056 8.52286377730887e-09 -2.465682752596241e-09 -7.481283314152726e-09 4.191153326942485e-09 4.130669805303362e-09 -3.757120745920565e-09 -1.333599191380242e-09 2.007605868902287e-09 
5.138027605521104 1.012319823280554e-08 -2.925866306655099e-09 -8.881519420635824e-09 4.968308074648017e-09 4.899163224387211e-09 -4.446928117947117e-09 -1.580813690798252e-09 2.372728050938554e-09 
5.144028805761153 1.20103080493498e-08 -3.467941287230446e-09 -1.05317470077573e-08 5.882728709166794e-09 5.803914794783501e-09 -5.257183013431372e-09 -1.871674184825249e-09 2.800903229019299e-09 
5.150030006001201 1.423314526469095e-08 -4.105774874766979e-09 -1.247445790989028e-08 6.957458927112549e-09 6.867900553806724e-09 -6.207837580910543e-09 -2.213503161069052e-09 3.302441419882652e-09 
5.156031206241249 1.684856790771453e-08 -4.855452810107946e-09 -1.475897227052685e-08 8.219191439120275e-09 8.117753971468267e-09 -7.321953423546155e-09 -2.614781563831232e-09 3.889234382030643e-09 
5.162032406481297 1.992254290892887e-08 -5.735613180560524e-09 -1.744247131080158e-08 9.69881026019446e-09 9.584312913364516e-09 -8.62615487885101e-09 -3.085320723640161e-09 4.57498179620102e-09 
5.168033606721345 2.353151969654157e-08 -6.767826916764433e-09 -2.059117557188503e-08 1.143200773767404e-08 1.130324257570741e-08 -1.015114326917547e-08 -3.636457934328531e-09 5.375447125172725e-09 
5.174034806961393 2.776399686946812e-08 -7.977031022124267e-09 -2.42816875405521e-08 1.34599857658178e-08 1.33157440937721e-08 -1.193227959246544e-08 -4.281278658340522e-09 6.308746670865139e-09 
5.180036007201441 3.272230700163603e-08 -9.392021256118362e-09 -2.8602519788654e-08 1.583025170482769e-08 1.56693596375508e-08 -1.401024393104353e-08 -5.034868676466861e-09 7.395675709269216e-09 
5.186037207441489 3.852464757607685e-08 -1.104601176376157e-08 -3.365583220911189e-08 1.859752069586996e-08 1.841888603238273e-08 -1.643178073852706e-08 -5.914599866380095e-09 8.660075977000194e-09 
5.192038407681537 4.530738929738953e-08 -1.29772699918384e-08 -3.955940463319546e-08 2.18247373504916e-08 2.162741028678584e-08 -1.925054012651231e-08 -6.940453697674274e-09 1.01292492088951e-08 
5.198039607921585 5.322769661373805e-08 -1.522983616455319e-08 -4.644887408730428e-08 2.558423120133037e-08 2.536748188415097e-08 -2.252802631849968e-08 -8.135386972214546e-09 1.183442188579719e-08 
5.204040808161633 6.246649922283467e-08 -1.78543376136347e-08 -5.448026921453818e-08 2.995902184013758e-08 2.972243830935807e-08 -2.63346655740069e-08 -9.525744820195213e-09 1.3811266847155e-08 
5.210042008401681 7.323185767034476e-08 -2.090890937770639e-08 -6.383287797062898e-08 3.504429134820622e-08 3.478790204620932e-08 -3.075100711630908e-08 -1.114172648721649e-08 1.610048795595541e-08 
5.216043208641729 8.576277090556773e-08 -2.446023371026058e-08 -7.471248863018458e-08 4.094904345300157e-08 4.0673469207775e-08 -3.586907192820997e-08 -1.301791001884247e-08 1.874847457538549e-08 
5.222044408881777 1.003334788716365e-07 -2.85847124725682e-08 -8.735504843382725e-08 4.779797083313343e-08 4.750461206068871e-08 -4.179386571715802e-08 -1.519384256950168e-08 2.180803322896755e-08 
5.228045609121824 1.172583189111755e-07 -3.336978784535756e-08 -1.02030788897124e-07 5.573355415207605e-08 5.542481998791119e-08 -4.864507389933515e-08 -1.771470373531957e-08 2.533920447011763e-08 
5.234046809361872 1.368972010004832e-07 -3.891542837946402e-08 -1.190488719168673e-07 6.491841873977701e-08 6.459800591467976e-08 -5.655895811744397e-08 -2.063205003866488e-08 2.941017368437722e-08 
5.24004800960192 1.596617736247498e-07 -4.533579912954045e-08 -1.38762616379141e-07 7.553797737123282e-08 7.521120791180912e-08 -6.569047559406628e-08 -2.400464947903169e-08 3.409828528903551e-08 
5.246049209841968 1.860223595142277e-07 -5.276113648525403e-08 -1.615753710277052e-07 8.780339032312533e-08 8.747761860203183e-08 -7.621564453673663e-08 -2.7899415913566e-08 3.949117058136146e-08 
5.252050410082016 2.165157485189357e-07 -6.133985034034168e-08 -1.879471059226492e-07 1.019548768346663e-07 1.016399781417332e-07 -8.833418085709551e-08 -3.239245394428006e-08 4.568800031883254e-08 
5.258051610322064 2.517539436513294e-07 -7.124087843082793e-08 -2.184018019410568e-07 1.182654152678316e-07 1.179743699454951e-07 -1.022724336491593e-07 -3.757022597095704e-08 5.280087399293709e-08 
5.264052810562112 2.924339658178445e-07 -8.265632003916428e-08 -2.535357254775783e-07 1.370448726660655e-07 1.367944619776595e-07 -1.182866491949639e-07 -4.353085412204749e-08 6.095635868238033e-08 
5.27005401080216 3.393488330381157e-07 -9.580437881067143e-08 -2.940266838279907e-07 1.586446080599801e-07 1.584562403670188e-07 -1.366665957332042e-07 -5.038557090353837e-08 7.029719134152604e-08 
5.276055211042208 3.933998410631138e-07 -1.109326471721761e-07 -3.406443657183974e-07 1.834625977739708e-07 1.833632863210092e-07 -1.577395838410378e-07 -5.826033361073889e-08 8.098415939493909e-08 
5.282056411282256 4.556102842995121e-07 -1.283217677898168e-07 -3.942618811124007e-07 2.119491351590268e-07 2.119726518375348e-07 -1.818749200432584e-07 -6.729761883293783e-08 9.319817556779886e-08 
5.288057611522304 5.271407688773952e-07 -1.482895106633012e-07 -4.558686248243722e-07 2.446131616238091e-07 2.448013945485144e-07 -2.094888341781379e-07 -7.765841474848123e-08 1.071425639830717e-07 
5.294058811762352 6.093062836125427e-07 -1.711953078368689e-07 -5.265845996248143e-07 2.820292905670924e-07 2.824338371918085e-07 -2.41049924115995e-07 -8.952443036031703e-08 1.23045575697466e-07 
5.3000600120024 7.035952095640784e-07 -1.974452913220958e-07 -6.076763464795703e-07 3.248455908379172e-07 3.255296227090247e-07 -2.770851646446036e-07 -1.031005423614416e-07 1.41163153026557e-07 
5.306061212242448 8.116904649243069e-07 -2.274978836833207e-07 -7.005746423534367e-07 3.737922016722547e-07 3.74832641816856e-07 -3.181865307033528e-07 -1.186175019476369e-07 1.6178196322162e-07 
5.312062412482496 9.354929991509992e-07 -2.618699948413258e-07 -8.068941396651051e-07 4.296908566824845e-07 4.311809161090876e-07 -3.650182886627688e-07 -1.363349256126358e-07 1.852227233025386e-07 
5.318063612722544 1.077147868613313e-06 -3.011438830127843e-07 -9.284551360373942e-07 4.93465400413007e-07 4.955175263241932e-07 -4.183250130034128e-07 -1.56544595769199e-07 2.118438391177702e-07 
5.324064812962592 1.239073145620217e-06 -3.459747423290706e-07 -1.067307678476229e-06 5.661533872247738e-07 5.689026823671562e-07 -4.789403895423946e-07 -1.795740989387682e-07 2.420453829881177e-07 
5.33006601320264 1.423991933582216e-06 -3.970990845746058e-07 -1.2257582225635e-06 6.489188588345488e-07 6.525270390099013e-07 -5.47796870279372e-07 -2.057908312420338e-07 2.762734355894339e-07 
5.336067213442688 1.634967783268961e-06 -4.553439876573231e-07 -1.406399084690063e-06 7.430664037105445e-07 7.477263689168456e-07 -6.259362489775207e-07 -2.356064030019258e-07 3.150248190330237e-07 
5.342068413682736 1.875443828709976e-06 -5.216372888762649e-07 -1.612140943810334e-06 8.500566087115935e-07 8.559977127529942e-07 -7.145212307472328e-07 -2.694814764374192e-07 3.588522494030524e-07 
5.348069613922784 2.149285986283082e-06 -5.970188067866054e-07 -1.846248668690219e-06 9.715230208466512e-07 9.790171346317402e-07 -8.148480731477543e-07 -3.079310726786189e-07 4.083699382984374e-07 
5.354070814162832 2.460830586981016e-06 -6.826526814819877e-07 -2.11238076716266e-06 1.109290744817035e-06 1.118659220045808e-06 -9.283603806487881e-07 -3.515303866673542e-07 4.642596741921854e-07 
5.36007201440288 2.814936839772969e-06 -7.798409294175624e-07 -2.414632775512851e-06 1.265396810074085e-06 1.277018462692346e-06 -1.056664138682104e-06 -4.009211509185662e-07 5.272774156526003e-07 
5.366073214642928 3.2170445534104e-06 -8.900383154824751e-07 -2.757584928795389e-06 1.442112449465321e-06 1.45643269624377e-06 -1.201544077941567e-06 -4.568185916006287e-07 5.98260429655824e-07 
5.372074414882976 3.67323757498579e-06 -1.01486865189343e-06 -3.146354476640757e-06 1.641967440134852e-06 1.659508737118205e-06 -1.364981464035286e-06 -5.200190229407866e-07 6.781350093442813e-07 
5.378075615123024 4.190313436052821e-06 -1.156142640614863e-06 -3.586653033933646e-06 1.867776666166714e-06 1.889150414651668e-06 -1.549173412029384e-06 -5.91408128567325e-07 7.679248066361878e-07 
5.384076815363072 4.775859731162032e-06 -1.315877383407181e-06 -4.084849381629496e-06 2.122669071487327e-06 2.148589175749646e-06 -1.756553829820034e-06 -6.71969981053719e-07 8.687598160517091e-07 
5.39007801560312 5.438337789255131e-06 -1.496317691250644e-06 -4.648038159898964e-06 2.410119180744901e-06 2.441417462074705e-06 -1.989816098596466e-06 -7.627968536214811e-07 9.818860469747931e-07 
5.396079215843169 6.187174235481184e-06 -1.699959332773993e-06 -5.2841149237249e-06 2.733981375224745e-06 2.771625069081397e-06 -2.251937602877153e-06 -8.65099880675681e-07 1.108675922298308e-06 
5.402080416083217 7.032861079626553e-06 -1.929574369416239e-06 -6.001858059985803e-06 3.098527120300087e-06 3.143638707706946e-06 -2.546206226675715e-06 -9.802206265767759e-07 1.250639441985037e-06 
5.408081616323265 7.987065007453163e-06 -2.18823873334521e-06 -6.811018094896868e-06 3.508485350413536e-06 3.56236500122792e-06 -2.87624893624014e-06 -1.109643624779374e-06 1.409436150498365e-06 
5.414082816563313 9.062746592770045e-06 -2.47936221262315e-06 -7.722414951386123e-06 3.969086227084103e-06 4.033237161656031e-06 -3.246062573463382e-06 -1.255009952176237e-06 1.5868879472933e-06 
5.420084016803361 1.0274290190961e-05 -2.806721016718392e-06 -8.748043747490219e-06 4.486108494883175e-06 4.562265602020442e-06 -3.660046987436882e-06 -1.418131906155705e-06 1.784992779589051e-06 
5.426085217043409 1.16376453188822e-05 -3.174493104180242e-06 -9.901189759079402e-06 5.065930669658063e-06 5.156092752914975e-06 -4.123040634658721e-06 -1.601008854492739e-06 2.005939256446225e-06 
5.432086417283457 1.317048037143622e-05 -3.58729646308411e-06 -1.119655320307054e-05 5.715586302435953e-06 5.82205236371397e-06 -4.640358781060055e-06 -1.80584433072594e-06 2.252122222721438e-06 
5.438087617523505 1.489234957161819e-05 -4.050230543673655e-06 -1.265038453065028e-05 6.442823571340257e-06 6.568233580812732e-06 -5.217834441218472e-06 -2.035064450101343e-06 2.526159330746091e-06 
5.444088817763553 1.682487409828848e-05 -4.568921051429771e-06 -1.428063095378619e-05 7.256169462415479e-06 7.403550107052387e-06 -5.861862191823744e-06 -2.291337723462991e-06 2.830908646549728e-06 
5.450090018003601 1.899193838421331e-05 -5.149568317530549e-06 -1.610709496231136e-05 8.164998808398753e-06 8.337814758062417e-06 -6.579444997585032e-06 -2.577596348612676e-06 3.169487326097166e-06 
5.456091218243649 2.141990262586445e-05 -5.798999472275425e-06 -1.815160562297504e-05 9.179608462102697e-06 9.381819742509375e-06 -7.378244188252371e-06 -2.897059060617438e-06 3.545291395307803e-06 
5.462092418483697 2.413783259589939e-05 -6.524724655468159e-06 -2.043820348588573e-05 1.031129688808658e-05 1.054742300407989e-05 -8.266632725198571e-06 -3.253255624282286e-06 3.962016665550169e-06 
5.468093618723745 2.717774789894618e-05 -7.334997505919702e-06 -2.299333995754543e-05 1.157244946258291e-05 1.184764097334822e-05 -9.253751894998438e-06 -3.650053053494082e-06 4.423680813830425e-06 
5.474094818963793 3.057488986106665e-05 -8.238880180069833e-06 -2.58460920329799e-05 1.29766297771036e-05 1.329674808737139e-05 -1.034957156557685e-05 -4.091683643345991e-06 4.934646653995992e-06 
5.480096019203841 3.436801029281242e-05 -9.246313157157867e-06 -2.902839331208508e-05 1.453867724565356e-05 1.491038344380222e-05 -1.156495413769832e-05 -4.582774901833728e-06 5.499646621931179e-06 
5.486097219443889 3.859968241484903e-05 -1.036819009531144e-05 -3.257528225699043e-05 1.62748113189057e-05 1.670566496438546e-05 -1.291172232076267e-05 -5.128381468437218e-06 6.123808493908231e-06 
5.492098419683937 4.33166352833961e-05 -1.161643800928042e-05 -3.652516867772851e-05 1.820274261090802e-05 1.870131144977483e-05 -1.440273085697444e-05 -5.734019107024741e-06 6.812682352952854e-06 
5.498099619923985 4.857011309989867e-05 -1.300410304622228e-05 -4.092011946251174e-05 2.034179124476502e-05 2.091777291353842e-05 -1.605194231189053e-05 -6.405700860200219e-06 7.572268813268239e-06 
5.504100820164033 5.441626083504608e-05 -1.454544214084582e-05 -4.58061645961579e-05 2.271301272312048e-05 2.337736958786296e-05 -1.787450704204146e-05 -7.149975451415854e-06 8.409048507417608e-06 
5.510102020404081 6.091653764111756e-05 -1.625602083523363e-05 -5.123362453535417e-05 2.533933162701836e-05 2.610443999667012e-05 -1.988684744169068e-05 -7.973968019849642e-06 9.330012835075754e-06 
5.516103220644129 6.813815956824912e-05 -1.815281755167836e-05 -5.725746003217373e-05 2.824568344268597e-05 2.912549849346566e-05 -2.210674656076446e-05 -8.88542327115542e-06 1.034269596571158e-05 
5.522104420884177 7.615457313915934e-05 -2.025433460876554e-05 -6.39376455171983e-05 3.145916480981034e-05 3.246940266108907e-05 -2.455344117448006e-05 -9.892751124688478e-06 1.145520808054402e-05 
5.528105621124225 8.504596137267715e-05 -2.258071627159257e-05 -7.133956717039027e-05 3.500919247681198e-05 3.616753096845193e-05 -2.724771937214877e-05 -1.100507493464764e-05 1.267626983151572e-05 
5.534106821364273 9.489978387860817e-05 -2.51538741263055e-05 -7.953444682110267e-05 3.892767123829573e-05 4.025397107517541e-05 -3.021202271796524e-05 -1.223228235870961e-05 1.401524798684604e-05 
5.540108021604321 0.0001058113526745446 -2.79976200669254e-05 -8.859979282791673e-05 4.324917111712112e-05 4.476571916858367e-05 -3.34705530202502e-05 -1.358507894312018e-05 1.548219222395753e-05 
5.546109221844369 0.0001178844453986365 -3.113780717859331e-05 -9.861987909392535e-05 4.801111403821775e-05 4.974289070860744e-05 -3.70493837275334e-05 -1.507504448780376e-05 1.708787302121801e-05 
5.552110422084417 0.0001312319576105391 -3.46024787957453e-05 -0.0001096862533732134 5.325397022321955e-05 5.522894294461503e-05 -4.097657594998833e-05 -1.671469224881681e-05 1.88438205900132e-05 
5.558111622324465 0.0001459765958851697 -3.842202600619723e-05 -0.0001218982760191651 5.902146451404378e-05 6.127090955384351e-05 -4.528229908302301e-05 -1.851753102835856e-05 2.076236477817122e-05 
5.564112822564513 0.0001622516134099163 -4.262935386252425e-05 -0.0001353636903144053 6.53607928095385e-05 6.791964773376144e-05 -4.999895598624177e-05 -2.049813019452535e-05 2.285667586471777e-05 
5.570114022804561 0.0001802015897949632 -4.726005655032291e-05 -0.0001501992255051816 7.232284877212346e-05 7.523009806019057e-05 -5.516131264549841e-05 -2.267218766401345e-05 2.514080615436961e-05 
5.576115223044609 0.0001999832567977645 -5.235260174879063e-05 -0.0001665312336393474 7.996246093079342e-05 8.326155739915889e-05 -6.080663221833958e-05 -2.505660087100685e-05 2.762973226810137e-05 
5.582116423284657 0.0002217663716457718 -5.794852440240891e-05 -0.0001844963612763379 8.833864027281614e-05 9.207796513308849e-05 -6.697481333377392e-05 -2.766954073449493e-05 3.033939801357729e-05 
5.588117623524705 0.0002457346396156415 -6.409263010321832e-05 -0.0002042422570991499 9.751483837879704e-05 0.0001017482029308712 -7.370853248600296e-05 -3.05305286242253e-05 3.32867577062656e-05 
5.594118823764753 0.0002720866874916364 -7.083320826109179e-05 -0.0002259283164118687 0.0001075592161143846 0.0001123464082564897 -8.105339032852406e-05 -3.366051631238179e-05 3.648981979868921e-05 
5.600120024004801 0.0003010370894801186 -7.822225521439565e-05 -0.000249726463451251 0.0001185449228466445 0.000123952301771959 -8.905806163988993e-05 -3.70819688838667e-05 3.996769066156616e-05 
