# Energy: -33.04554829019803
# J: 1
# M: 0
# Lmin: 0
# Lmax: 8
# grid size: 5000
# h: 0.006001200240048009
5 0 0 0 0 0 0 0 0 
5.006001200240048 4.858945367410045e-11 -1.430800806567572e-11 -4.297288989572851e-11 2.470274656001542e-11 2.404978650865571e-11 -2.267085918469303e-11 -7.810990954763341e-12 1.23834609510412e-11 
5.012002400480096 9.902170515552674e-11 -2.915394194080744e-11 -8.756652361644004e-11 5.032417250395441e-11 4.899702320153006e-11 -4.617070915244531e-11 -1.59113230312381e-11 2.521210927511158e-11 
5.018003600720144 1.531639105747516e-10 -4.508278055709296e-11 -1.3542306016234e-10 7.779498886391367e-11 7.57510784248821e-11 -7.133949696922908e-11 -2.459424943762135e-11 3.893723954698442e-11 
5.024004800960192 2.129710243871328e-10 -6.266485888608675e-11 -1.882614400010137e-10 1.080887251307577e-10 1.052634355670962e-10 -9.905523813899701e-11 -3.416656031821424e-11 5.403042537538192e-11 
5.03000600120024 2.805529807130504e-10 -8.251524804552506e-11 -2.479360116460918e-10 1.422543226772476e-10 1.385596643706624e-10 -1.302627151271721e-10 -4.495877269857025e-11 7.099852631156459e-11 
5.036007201440288 3.582438049963421e-10 -1.053136829137175e-10 -3.164968333234661e-10 1.814496386437722e-10 1.767723036269187e-10 -1.660029773578636e-10 -5.733561603895082e-11 9.039913613029879e-11 
5.042008401680336 4.486748808362768e-10 -1.318256691263681e-10 -3.962535700243512e-10 2.269769000188521e-10 2.211756788968007e-10 -2.074445243992591e-10 -7.170713329310939e-11 1.128569105211436e-10 
5.048009601920384 5.548545566763499e-10 -1.62925389782813e-10 -4.898448718321783e-10 2.803211289370715e-10 2.732236615043786e-10 -2.559170397749846e-10 -8.85407125297167e-11 1.390812084763265e-10 
5.054010802160432 6.802563083864221e-10 -1.996210405315535e-10 -6.003151457697995e-10 3.431925732149766e-10 3.345913889175052e-10 -3.129485538674604e-10 -1.083743687855718e-10 1.698854890010016e-10 
5.06001200240048 8.289177698899931e-10 -2.4308324806685e-10 -7.312007148360633e-10 4.175742179092138e-10 4.072220089090276e-10 -3.803069484860099e-10 -1.318316090501956e-10 2.062089225144276e-10 
5.066013202640528 1.005553100663535e-09 -2.946772702704902e-10 -8.866274908089015e-10 5.057755223265738e-10 4.933795787687328e-10 -4.600467714014897e-10 -1.596382345990847e-10 2.491407039942767e-10 
5.072014402880576 1.215681374070819e-09 -3.559997356673095e-10 -1.071422469961104e-09 6.104936214318956e-10 5.957093453560775e-10 -5.545624056858507e-10 -1.926414640159246e-10 2.999475922865565e-10 
5.078015603120624 1.4657739437534e-09 -4.289207553989881e-10 -1.29124159270826e-09 7.34883350708975e-10 7.173067517151039e-10 -6.666487357658361e-10 -2.31831797100346e-10 3.6010524699552e-10 
5.084016803360672 1.763424077845817e-09 -5.156323328358289e-10 -1.552716790284277e-09 8.826375995798027e-10 8.617966617028086e-10 -7.995705698951015e-10 -2.783680845549352e-10 4.313339910879106e-10 
5.09001800360072 2.117542545107667e-09 -6.18704104875597e-10 -1.863625375815029e-09 1.058079671372459e-09 1.033424466538644e-09 -9.571422178621244e-10 -3.336063211475527e-10 5.156396940556497e-10 
5.096019203840768 2.538583296838884e-09 -7.411475758772517e-10 -2.233085326616936e-09 1.266269528928189e-09 1.237160937776855e-09 -1.143818784133646e-09 -3.991327413566949e-10 6.153605475833856e-10 
5.102020404080816 3.038803918441304e-09 -8.864901512949974e-10 -2.671780453072934e-09 1.513126036077347e-09 1.478822921787941e-09 -1.364800921559301e-09 -4.768018668598138e-10 7.332205936937731e-10 
5.108021604320864 3.632566130519763e-09 -1.058860444941057e-09 -3.192219961776436e-09 1.805567568629353e-09 1.76521223367613e-09 -1.626155000803101e-09 -5.687802352663139e-10 8.723909649440498e-10 
5.114022804560912 4.336682308298966e-09 -1.263086523207211e-09 -3.809037502351239e-09 2.151673666843775e-09 2.104275406315444e-09 -1.934950887669502e-09 -6.775966299888788e-10 1.036559908182304e-09 
5.12002400480096 5.170814767683705e-09 -1.504808963570567e-09 -4.539335444828549e-09 2.560870737590141e-09 2.505287285898978e-09 -2.299419786566539e-09 -8.061997329565324e-10 1.230012788503129e-09 
5.126025205041008 6.15793544532657e-09 -1.790610845614472e-09 -5.403080874876515e-09 3.044145191949371e-09 2.979061842482247e-09 -2.72913490585954e-09 -9.580242359722283e-10 1.457723409328382e-09 
5.132026405281056 7.324854588426711e-09 -2.128167063191093e-09 -6.423560625536079e-09 3.614287826620494e-09 3.538193986255812e-09 -3.235218032424808e-09 -1.137066573981441e-09 1.725458139028288e-09 
5.138027605521104 8.70282817854964e-09 -2.526415649087197e-09 -7.627903595258021e-09 4.286173729308554e-09 4.197336651877075e-09 -3.83057547116281e-09 -1.347971585522524e-09 2.039894505325099e-09 
5.144028805761153 1.032825505450132e-08 -2.995754141755061e-09 -9.047679642656695e-09 5.077082513800292e-09 4.973517938682014e-09 -4.53016721365944e-09 -1.596131563452715e-09 2.408756107099999e-09 
5.150030006001201 1.224347608530659e-08 -3.548264400747507e-09 -1.071958550908066e-08 6.00706427458719e-09 5.886503678930821e-09 -5.351313651910785e-09 -1.887799334065359e-09 2.840965900443343e-09 
5.156031206241249 1.449768928990459e-08 -4.197969697156566e-09 -1.268622951235086e-08 7.099357298969603e-09 6.959211454761345e-09 -6.314044651598775e-09 -2.230217196415826e-09 3.346820143207897e-09 
5.162032406481297 1.714799652077971e-08 -4.961128371612572e-09 -1.499702819128836e-08 8.380864292272138e-09 8.218182802980947e-09 -7.441496348597575e-09 -2.6317637676395e-09 3.938185531367784e-09 
5.168033606721345 2.026059924117638e-08 -5.856568869584742e-09 -1.770922967438577e-08 9.882694665231677e-09 9.694121141385253e-09 -8.76036163619967e-09 -3.102121015960444e-09 4.628722332633244e-09 
5.174034806961393 2.391216304791134e-08 -6.906071536495367e-09 -2.088908031163378e-08 1.164078130831558e-08 1.142250382753668e-08 -1.030140097318976e-08 -3.652464022740139e-09 5.434136619554617e-09 
5.180036007201441 2.819137294360415e-08 -8.134803188516012e-09 -2.461315306161259e-08 1.369658124264312e-08 1.344427772787831e-08 -1.210002086878684e-08 -4.295676300188334e-09 6.372465027341468e-09 
5.186037207441489 3.320070396434495e-08 -9.571811174206251e-09 -2.896985828310677e-08 1.609787059870126e-08 1.580664873914209e-08 -1.419692819424355e-08 -5.046593804236011e-09 7.464395812430277e-09 
5.192038407681537 3.905843464385358e-08 -1.125058441309226e-08 -3.40611599594218e-08 1.889964553998157e-08 1.856397687311057e-08 -1.663886933734758e-08 -5.922281124632024e-09 8.733630368084576e-09 
5.198039607921585 4.590093396705303e-08 -1.320968974594422e-08 -4.000452300314175e-08 2.216514202726422e-08 2.177878979821267e-08 -1.947946416020113e-08 -6.942343708738619e-09 1.020728976464179e-08 
5.204040808161633 5.388525596026752e-08 -1.549349286435345e-08 -4.693512016930127e-08 2.596698871921237e-08 2.552292913591116e-08 -2.278014574760247e-08 -8.129280384020347e-09 1.191637132606424e-08 
5.210042008401681 6.319207990918568e-08 -1.815297411107076e-08 -5.50083302670664e-08 3.038850883531195e-08 2.987884534552281e-08 -2.661121804839921e-08 -9.508880889177357e-09 1.389626073282045e-08 
5.216043208641729 7.402903841818969e-08 -2.124665056467176e-08 -6.440256282643138e-08 3.552518847750555e-08 3.494105870755834e-08 -3.10530447207179e-08 -1.111067360766914e-08 1.618730565539279e-08 
5.222044408881777 8.663448015622471e-08 -2.484161705007682e-08 -7.532244817073674e-08 4.148633072702966e-08 4.081780574282276e-08 -3.619738379947247e-08 -1.296842922246947e-08 1.883545747439733e-08 
5.228045609121824 1.012817192073687e-07 -2.90147200582707e-08 -8.800243599278417e-08 4.83969168132519e-08 4.763289239269078e-08 -4.214888421654091e-08 -1.512072657979583e-08 2.189298823385263e-08 
5.234046809361872 1.182838284926716e-07 -3.385388002262695e-08 -1.027108500579028e-07 5.639969780235106e-08 5.552777744580285e-08 -4.902676172601171e-08 -1.761158766480838e-08 2.541929060488579e-08 
5.24004800960192 1.379990407893975e-07 -3.945957899430024e-08 -1.197544515886058e-07 6.565754258643777e-08 6.466391203887283e-08 -5.696667342444822e-08 -2.049118925643526e-08 2.948176930932927e-08 
5.246049209841968 1.608368274819428e-07 -4.594653249433479e-08 -1.394835692506373e-07 7.635607047941409e-08 7.522536359554865e-08 -6.612281181462742e-08 -2.381665954410796e-08 3.415683316730148e-08 
5.252050410082016 1.872647323745227e-07 -5.344556620491886e-08 -1.622978594884826e-07 8.8706599455979e-08 8.742175530873489e-08 -7.667024124597915e-08 -2.76529687588185e-08 3.953099769084844e-08 
5.258051610322064 2.17816045719883e-07 -6.210572020640458e-08 -1.886527672799754e-07 1.029494440163645e-07 1.01491555230027e-07 -8.880750158109196e-08 -3.207392369702824e-08 4.570210894771939e-08 
5.264052810562112 2.530984121130998e-07 -7.209660568041647e-08 -2.190667642255777e-07 1.193575998334037e-07 1.177057522165439e-07 -1.027595060900168e-07 -3.716327690098032e-08 5.278070026575825e-08 
5.27005401080216 2.938034751086195e-07 -8.361104139298084e-08 -2.541294482900751e-07 1.382408557522289e-07 1.36371959412125e-07 -1.187807628672131e-07 -4.301596220520609e-08 6.089149423934606e-08 
5.276055211042208 3.407176713871539e-07 -9.686799985575375e-08 -2.945105975053308e-07 1.599503773780674e-07 1.578389896181071e-07 -1.371589515039767e-07 -4.9739469368652e-08 7.017506343462251e-08 
5.282056411282256 3.947342980731056e-07 -1.121158958489331e-07 -3.409702785553864e-07 1.848838104159595e-07 1.825019508500934e-07 -1.582188893357089e-07 -5.745537158688841e-08 8.078966416929288e-08 
5.288057611522304 4.568669884301573e-07 -1.296362529873049e-07 -3.943701204329459e-07 2.134909561292424e-07 2.108079145923148e-07 -1.823269243214833e-07 -6.630102082110124e-08 9.29132587647151e-08 
5.294058811762352 5.282647436906895e-07 -1.497477872321584e-07 -4.556858733126085e-07 2.462800757725072e-07 2.432622137610312e-07 -2.098957945054676e-07 -7.643142709155103e-08 1.067457427312613e-07 
5.3000600120024 6.10228682252565e-07 -1.728109497076515e-07 -5.260213834645854e-07 2.838248856401831e-07 2.804354321829994e-07 -2.413899970574727e-07 -8.802133916417042e-08 1.225113944507455e-07 
5.306061212242448 7.042306819537398e-07 -1.992329748816899e-07 -6.066241264661307e-07 3.267723094641108e-07 3.229711524937904e-07 -2.773317130939988e-07 -1.012675454108628e-07 1.404615660595771e-07 
5.312062412482496 8.11934106660418e-07 -2.294734841294783e-07 -6.989024531890755e-07 3.758510603019181e-07 3.715945347721699e-07 -3.183073378413897e-07 -1.163914150473771e-07 1.608776354102247e-07 
5.318063612722544 9.352168250271435e-07 -2.64050698923415e-07 -8.044447160823393e-07 4.318811297913618e-07 4.271218039584633e-07 -3.649746692177856e-07 -1.336417014474297e-07 1.840742401929101e-07 
5.324064812962592 1.076196747055825e-06 -3.035483223964145e-07 -9.250404571585295e-07 4.957842687116037e-07 4.904707301630742e-07 -4.180708115779002e-07 -1.532976307975743e-07 2.10402816529906e-07 
5.33006601320264 1.237260123042814e-06 -3.486231528171852e-07 -1.062703853862585e-06 5.685955491971986e-07 5.626721923611101e-07 -4.78420855180356e-07 -1.756723009931881e-07 2.402554656063514e-07 
5.336067213442688 1.421092869704888e-06 -4.000134976050691e-07 -1.219699634674839e-06 6.514761056993612e-07 6.448829226936911e-07 -5.469473958960316e-07 -2.011164173801956e-07 2.740691731683667e-07 
5.342068413682736 1.630715209760792e-06 -4.58548461907807e-07 -1.398571692905347e-06 7.457271588854742e-07 7.383995356575015e-07 -6.246809637706215e-07 -2.30022393717457e-07 3.123304079948642e-07 
5.348069613922784 1.8695199340566e-06 -5.251581914762412e-07 -1.602174644692567e-06 8.528054341134866e-07 8.446739538609447e-07 -7.127714332766636e-07 -2.628288485680361e-07 3.555801267264301e-07 
5.354070814162832 2.141314619499849e-06 -6.008851556029621e-07 -1.833708595745947e-06 9.74340093912754e-07 9.653303497550665e-07 -8.125004924291202e-07 -3.000255292198792e-07 4.044192137047098e-07 
5.36007201440288 2.450368161644287e-06 -6.868965622535662e-07 -2.096757400883214e-06 1.112151312044563e-06 1.102183730804858e-06 -9.252952523816052e-07 -3.421586971830004e-07 4.59514385729717e-07 
5.366073214642928 2.801462007776023e-06 -7.844980042147953e-07 -2.395330720919275e-06 1.268270625199281e-06 1.257260303943422e-06 -1.052743083652861e-06 -3.898370113052615e-07 5.216045928702983e-07 
5.372074414882976 3.199946504818661e-06 -8.951484421171594e-07 -2.733910202970134e-06 1.444963207205498e-06 1.432819763836648e-06 -1.196607769738213e-06 -4.437379465854883e-07 5.915079476536074e-07 
5.378075615123024 3.651802806321461e-06 -1.020476637563235e-06 -3.117500132741581e-06 1.644752219769303e-06 1.631379658464802e-06 -1.358847073519024e-06 -5.046147888329784e-07 6.701292161008407e-07 
5.384076815363072 4.163710814234211e-06 -1.162299157307261e-06 -3.551682930872432e-06 1.870445403215636e-06 1.855741994781692e-06 -1.541631816573133e-06 -5.733042474174239e-07 7.584679051557384e-07 
5.39007801560312 4.743123664113905e-06 -1.322640077485923e-06 -4.042679889882203e-06 2.125164080451832e-06 2.10902225671971e-06 -1.747366576186215e-06 -6.5073473046247e-07 8.576269820554774e-07 
5.396079215843169 5.398349296850089e-06 -1.503752525291142e-06 -4.597417573712971e-06 2.412374757395664e-06 2.394681017543779e-06 -1.978712109541168e-06 -7.379353289480009e-07 9.688222621057239e-07 
5.402080416083217 6.13863969592921e-06 -1.708142204197916e-06 -5.22360032822546e-06 2.735923513382285e-06 2.716558338488359e-06 -2.238609619190011e-06 -8.360455582876884e-07 1.093392502126882e-06 
5.408081616323265 6.974288406663756e-06 -1.938593057906128e-06 -5.929789378272494e-06 3.100073385558408e-06 3.078911155703615e-06 -2.530306978457928e-06 -9.463259080250899e-07 1.232810237520227e-06 
5.414082816563313 7.916736992660591e-06 -2.198195237514256e-06 -6.725489015081482e-06 3.509544961955169e-06 3.486453867749331e-06 -2.857387039856386e-06 -1.07016925232754e-06 1.388693401443034e-06 
5.420084016803361 8.978691125052082e-06 -2.490375546102127e-06 -7.621240406573395e-06 3.969560408766852e-06 3.944402346162213e-06 -3.223798153853176e-06 -1.209113175935114e-06 1.562817764962451e-06 
5.426085217043409 1.017424704161063e-05 -2.818930544843108e-06 -8.628723592860476e-06 4.485891168308833e-06 4.45852160193264e-06 -3.633887029420619e-06 -1.364853272122859e-06 1.757130237259522e-06 
5.432086417283457 1.151902915574362e-05 -3.18806251497411e-06 -9.760868259417429e-06 5.064909575138731e-06 5.035177351003625e-06 -4.092434071614552e-06 -1.539257471037993e-06 1.97376306495756e-06 
5.438087617523505 1.303033963943969e-05 -3.602418480401988e-06 -1.103197391121833e-05 5.713644648847821e-06 5.68139173208493e-06 -4.604691334978813e-06 -1.734381458457643e-06 2.215048969432268e-06 
5.444088817763553 1.472732084941131e-05 -4.06713250639115e-06 -1.245784010236721e-05 6.439842333008724e-06 6.404903440089208e-06 -5.176423234773004e-06 -1.952485246553259e-06 2.483537260503696e-06 
5.450090018003601 1.663113151183761e-05 -4.587871500629623e-06 -1.405590740730388e-05 7.252030460637897e-06 7.21423254826999e-06 -5.813950160832019e-06 -2.19605095961995e-06 2.782010964190852e-06 
5.456091218243649 1.876513762812395e-05 -5.170884753975857e-06 -1.584540985140359e-05 8.159588737229711e-06 8.118750301590086e-06 -6.524195141229182e-06 -2.467801898905563e-06 3.113505001206675e-06 
5.462092418483697 2.115511911181082e-05 -5.823057469308488e-06 -1.784753955055904e-05 9.172824042870496e-06 9.128754172886666e-06 -7.314733704772311e-06 -2.770722951627272e-06 3.481325451562397e-06 
5.468093618723745 2.382949321501333e-05 -6.551968538094057e-06 -2.008562434096925e-05 1.030305136506641e-05 1.025554848192844e-05 -8.193847092653805e-06 -3.108082409962678e-06 3.889069939014357e-06 
5.474094818963793 2.68195558513634e-05 -7.365952835507744e-06 -2.258531921168211e-05 1.156268068363366e-05 1.151153088538108e-05 -9.170578970239239e-06 -3.483455266216907e-06 4.340649167101169e-06 
5.480096019203841 3.015974197115074e-05 -8.274168316138344e-06 -2.537481238324401e-05 1.296531013821569e-05 1.29102850528993e-05 -1.025479578994885e-05 -3.900748050463962e-06 4.840309636163865e-06 
5.486097219443889 3.388790619297725e-05 -9.286668203427057e-06 -2.848504690588676e-05 1.452582581761132e-05 1.446667985093348e-05 -1.145725095539851e-05 -4.364225276706296e-06 5.39265756799556e-06 
5.492098419683937 3.804562494450297e-05 -1.041447857696986e-05 -3.194995867979385e-05 1.626050851802276e-05 1.619697536125309e-05 -1.27896529353521e-05 -4.878537562955865e-06 6.002684061610328e-06 
5.498099619923985 4.267852141248331e-05 -1.166968167259232e-05 -3.580673182788548e-05 1.818714782445461e-05 1.81189360655206e-05 -1.426473747352826e-05 -5.44875148957726e-06 6.675791500034862e-06 
5.504100820164033 4.783661464897909e-05 -1.306550522061458e-05 -4.009607237797161e-05 2.032516387570604e-05 2.025195153036479e-05 -1.589634403683363e-05 -6.080381258711685e-06 7.417821223993199e-06 
5.510102020404081 5.357469422603349e-05 -1.461641815789067e-05 -4.486250123576273e-05 2.269573717858194e-05 2.261716492916029e-05 -1.769949664009095e-05 -6.779422215583029e-06 8.235082483858892e-06 
5.516103220644129 5.995272187489523e-05 -1.633823305895269e-05 -5.015466745278647e-05 2.532194684098491e-05 2.523760973697739e-05 -1.969048917972714e-05 -7.552386289935681e-06 9.134382676275485e-06 
5.522104420884177 6.703626158766026e-05 -1.824821564083545e-05 -5.602568281342215e-05 2.822891759631706e-05 2.81383549337701e-05 -2.188697540211553e-05 -8.406339412730369e-06 1.012305886638374e-05 
5.528105621124225 7.489693969858543e-05 -2.036520170481517e-05 -6.253347878268148e-05 3.144397599298963e-05 3.134665904767109e-05 -2.430806362426185e-05 -9.348940959491627e-06 1.120901059063202e-05 
5.534106821364273 8.361293649888639e-05 -2.270972188627692e-05 -6.974118687068861e-05 3.499681612268165e-05 3.489213336509558e-05 -2.697441631522174e-05 -1.038848526732113e-05 1.240073392867761e-05 
5.540108021604321 9.326951097210282e-05 -2.530413459113709e-05 -7.771754348066367e-05 3.891967525917362e-05 3.88069146270674e-05 -2.990835463597497e-05 -1.153394526752735e-05 1.370735682590733e-05 
5.546109221844369 0.0001039595602666295 -2.8172767503591e-05 -8.65373203142071e-05 4.32475197759738e-05 4.312584752160031e-05 -3.313396802340426e-05 -1.279501827003969e-05 1.513867564061322e-05 
5.552110422084417 0.0001157842155472692 -3.134206805533382e-05 -9.628178141041227e-05 4.801824170542238e-05 4.788667726993598e-05 -3.667722889047658e-05 -1.418217392923884e-05 1.670519288185657e-05 
5.558111622324465 0.0001288534758881382 -3.484076325071103e-05 -0.0001070391678933891 5.327286629436297e-05 5.313025258978855e-05 -4.056611249965309e-05 -1.570670441351142e-05 1.84181560955459e-05 
5.564112822564513 0.0001432868818844029 -3.870002924538807e-05 -0.0001189052114957286 5.905577090168254e-05 5.890073930130889e-05 -4.483072204992018e-05 -1.73807767926971e-05 2.028959784725092e-05 
5.570114022804561 0.0001592142306695958 -4.295367107798027e-05 -0.0001319836779128406 6.541491557090473e-05 6.52458448211011e-05 -4.950341899959467e-05 -1.921748764861035e-05 2.233237674079021e-05 
5.576115223044609 0.0001767763340280346 -4.763831295454716e-05 -0.0001463869410245117 7.240208559645026e-05 7.221705376613125e-05 -5.461895862718481e-05 -2.123091990396217e-05 2.456021940168079e-05 
5.582116423284657 0.0001961258212875903 -5.279359948481773e-05 -0.000162236588994999 8.007314638502487e-05 7.986987486261457e-05 -6.021463081105957e-05 -2.343620185425788e-05 2.698776334414779e-05 
5.588117623524705 0.0002174279886660723 -5.846240826636772e-05 -0.0001796640632310369 8.848831089374243e-05 8.826409932479931e-05 -6.633040598547626e-05 -2.584956837558726e-05 2.963060062958805e-05 
5.594118823764753 0.0002408616967241948 -6.469107420860853e-05 -0.000198811331137843 9.771241990391446e-05 9.746407083483453e-05 -7.300908620563638e-05 -2.848842426863688e-05 3.250532221319481e-05 
5.600120024004801 0.0002666203175488395 -7.152962598225857e-05 -0.0002198315935660754 0.0001078152353638442 0.0001075389672174858 -8.029646122788644e-05 -3.137140968573597e-05 3.562956286391971e-05 
