# Energy: -22.07315266232367
# J: 1
# M: -1
# Lmin: 1
# Lmax: 9
# grid size: 5000
# h: 0.006001200240048009
5 0 0 0 0 0 0 0 0 
5.006001200240048 5.127275568576606e-11 -1.842618078368628e-11 -3.27589482953897e-11 2.307734314356133e-11 1.537567421445362e-11 -1.789649581212067e-11 -3.950260218735797e-12 8.686193323265092e-12 
5.012002400480096 1.044788308917508e-10 -3.753905923866744e-11 -6.674085647279891e-11 4.7000783865987e-11 3.131744065398443e-11 -3.643477893743838e-11 -8.045454369453548e-12 1.767741189982323e-11 
5.018003600720144 1.615767500772332e-10 -5.80341837494251e-11 -1.031845955249213e-10 7.262728473073015e-11 4.839880508397351e-11 -5.626495813938398e-11 -1.24324615047731e-11 2.728280739630136e-11 
5.024004800960192 2.246164014920891e-10 -8.063908133777806e-11 -1.433862333819069e-10 1.00852534868027e-10 6.721943016875824e-11 -7.80659388282293e-11 -1.726487597429539e-11 3.782507241309496e-11 
5.03000600120024 2.958090974323995e-10 -1.061377452844304e-10 -1.887427493596642e-10 1.326404429945338e-10 8.842497871632949e-11 -1.025670929633687e-10 -2.27080571359754e-11 4.965040846330774e-11 
5.036007201440288 3.775996143722012e-10 -1.353957978470863e-10 -2.407969704814092e-10 1.690534287182426e-10 1.127275107621647e-10 -1.305705148019318e-10 -2.894432394450474e-11 6.313878062043757e-11 
5.042008401680336 4.727425206738514e-10 -1.693871175109439e-10 -3.012851426536365e-10 2.11284433017398e-10 1.409270576877691e-10 -1.629745069860814e-10 -3.617845114144504e-11 7.871473717364989e-11 
5.048009601920384 5.843850566882956e-10 -2.092227051962652e-10 -3.721885237053681e-10 2.606915516357488e-10 1.739349859399927e-10 -2.007989310101768e-10 -4.464362137278159e-11 9.685907070593877e-11 
5.054010802160432 7.161588630131551e-10 -2.561825733725479e-10 -4.557904033594995e-10 3.188362053138858e-10 2.127997708511899e-10 -2.452130633051724e-10 -5.460798974450919e-11 1.18121601572288e-10 
5.06001200240048 8.722829504651312e-10 -3.117514737662206e-10 -5.547400131623579e-10 3.875257957466442e-10 2.58735825886089e-10 -2.975666215082078e-10 -6.638202368769951e-11 1.431353754678444e-10 
5.066013202640528 1.057680465561966e-09 -3.776593318180016e-10 -6.721248846335237e-10 4.688618542680631e-10 3.131560732824851e-10 -3.594246639360928e-10 -8.032679128012492e-11 1.726325834037572e-10 
5.072014402880576 1.278112025779593e-09 -4.559273284601376e-10 -8.115533450427239e-10 5.652947705948288e-10 3.777089979280233e-10 -4.326071182567661e-10 -9.686338522171808e-11 2.074625348121537e-10 
5.078015603120624 1.540328679143417e-09 -5.489206619363604e-10 -9.772490069503971e-10 6.796862911944583e-10 4.543209972599922e-10 -5.192337626123009e-10 -1.164836874469327e-10 2.486120426367849e-10 
5.084016803360672 1.852247883967323e-09 -6.594091345677894e-10 -1.174159310533582e-09 8.153811011950591e-10 5.452449261824016e-10 -6.217755640547847e-10 -1.397627009257401e-10 2.972286131748836e-10 
5.09001800360072 2.223156309263476e-09 -7.906368422974801e-10 -1.408080418110152e-09 9.762889508817206e-10 6.531158379702701e-10 -7.431133754413044e-10 -1.673727006789665e-10 3.546468732421522e-10 
5.096019203840768 2.66394372822111e-09 -9.464023996318789e-10 -1.685801040221819e-09 1.166978958794236e-09 7.810150406590823e-10 -8.866051034586841e-10 -2.000994856020638e-10 4.22418713134029e-10 
5.102020404080816 3.187372821027695e-09 -1.131151310698916e-09 -2.015268094830101e-09 1.392787919678638e-09 9.325437245355591e-10 -1.056162587983456e-09 -2.388610466038475e-10 5.023476761173908e-10 
5.108021604320864 3.808390325077626e-09 -1.350082300349405e-09 -2.405777468910917e-09 1.659944668812763e-09 1.111907571327711e-09 -1.256339577488278e-09 -2.847290051288154e-10 5.965281841341407e-10 
5.114022804560912 4.544485677207179e-09 -1.609269649646464e-09 -2.868193568870833e-09 1.975712806600638e-09 1.32401393103481e-09 -1.492432347817028e-09 -3.389532197017408e-10 7.07390255414226e-10 
5.12002400480096 5.416104091949632e-09 -1.915803840129775e-09 -3.415201817183083e-09 2.348554371190305e-09 1.57458334975396e-09 -1.770594693663827e-09 -4.029900071201218e-10 8.37750443214146e-10 
5.126025205041008 6.447121920880852e-09 -2.277953103625587e-09 -4.061598782446605e-09 2.788317364886202e-09 1.870277453273195e-09 -2.097969224955348e-09 -4.785344797816476e-10 9.908698063979197e-10 
5.132026405281056 7.665393150916546e-09 -2.70534880212289e-09 -4.824625224261872e-09 3.306450395259425e-09 2.218845438744028e-09 -2.482837125644757e-09 -5.675575618760519e-10 1.170519812582831e-09 
5.138027605521104 9.103377034986006e-09 -3.209197928684486e-09 -5.724347999021645e-09 3.916248087351439e-09 2.62929170276061e-09 -2.934788781911149e-09 -6.723483153469955e-10 1.381057173641851e-09 
5.144028805761153 1.079885811899809e-08 -3.802526429157619e-09 -6.784097514646499e-09 4.633131362748281e-09 3.11206744120973e-09 -3.464917962283991e-09 -7.955622822407696e-10 1.627508722081731e-09 
5.150030006001201 1.279577134772959e-08 -4.50045749956522e-09 -8.030968248769539e-09 5.474967168387402e-09 3.679289397078947e-09 -4.086042535767327e-09 -9.402766339523923e-10 1.915667555822882e-09 
5.156031206241249 1.514514651368689e-08 -5.320529519800983e-09 -9.496390763827445e-09 6.462432776848428e-09 4.344989309997498e-09 -4.812955047733074e-09 -1.110053010650926e-09 2.252201808841276e-09 
5.162032406481297 1.790618807283952e-08 -6.283058845266846e-09 -1.121678467252053e-08 7.619430374960669e-09 5.125398038831134e-09 -5.662706839410009e-09 -1.309009036556252e-09 2.644777546660445e-09 
5.168033606721345 2.1147508306411e-08 -7.411553299378736e-09 -1.323430313739704e-08 8.973558313509664e-09 6.03926878957187e-09 -6.654929797544999e-09 -1.541899609537001e-09 3.102197439484216e-09 
5.174034806961393 2.494853397699183e-08 -8.733182896786835e-09 -1.559768073880907e-08 1.055664611260534e-08 7.108244388692483e-09 -7.812200258683736e-09 -1.814209187538033e-09 3.634557032527372e-09 
5.180036007201441 2.940110902986924e-08 -1.027931508543937e-08 -1.836319792678995e-08 1.240536111013475e-08 8.357274100930704e-09 -9.160450070027432e-09 -2.132256430504554e-09 4.253420613523509e-09 
5.186037207441489 3.461131854785063e-08 -1.208612263137359e-08 -2.159577679584124e-08 1.456189551019257e-08 9.815086104207563e-09 -1.072943032856348e-08 -2.503312705671628e-09 4.972018872152937e-09 
5.192038407681537 4.070156210270374e-08 -1.419527318983589e-08 -2.537022459924706e-08 1.707474354026904e-08 1.151472240736793e-08 -1.255323388480325e-08 -2.935736127296955e-09 5.8054707559116e-09 
5.198039607921585 4.781290788290586e-08 -1.665471061689754e-08 -2.977264326414956e-08 1.999957946635155e-08 1.349414373317266e-08 -1.467088330969757e-08 -3.439122980136206e-09 6.771032152386089e-09 
5.204040808161633 5.610776254153736e-08 -1.95195391844172e-08 -3.490202519377046e-08 2.340024835029133e-08 1.57969126941965e-08 -1.712699168588472e-08 -4.024478570235164e-09 7.888374269629148e-09 
5.210042008401681 6.57728956273625e-08 -2.285302307567182e-08 -4.087205786314832e-08 2.734988267037117e-08 1.847296446792252e-08 -1.997250430011225e-08 -4.704409758016265e-09 9.179894844923188e-09 
5.216043208641729 7.70228617655587e-08 -2.672771486728941e-08 -4.781316214463236e-08 3.193215927077543e-08 2.157947513449218e-08 -2.326553008521267e-08 -5.493341658272918e-09 1.067106558820029e-08 
5.222044408881777 9.010386847302717e-08 -3.122672815370967e-08 -5.587479195493066e-08 3.72427125655988e-08 2.518183888156872e-08 -2.707227249011951e-08 -6.407761240680727e-09 1.239081956021529e-08 
5.228045609121824 1.052981426592757e-07 -3.644517105208348e-08 -6.522802571328155e-08 4.339072150530062e-08 2.935476641106325e-08 -3.146807034773783e-08 -7.466490833936153e-09 1.437198249762365e-08 
5.234046809361872 1.229288545117634e-07 -4.249175904747162e-08 -7.606848325754358e-08 5.050068952541024e-08 3.418351810765807e-08 -3.653856026559861e-08 -8.690994827797416e-09 1.665175242768431e-08 
5.24004800960192 1.433656636302707e-07 -4.949062750993258e-08 -8.861960529960316e-08 5.871443854622559e-08 3.976528685486398e-08 -4.238097308556637e-08 -1.010572318128767e-08 1.92722322645683e-08 
5.246049209841968 1.670309589959206e-07 -5.7583366246424e-08 -1.031363362320405e-07 6.819334008566629e-08 4.621074681657617e-08 -4.910557804870971e-08 -1.173849568328109e-08 2.22810204472585e-08 
5.252050410082016 1.944068716761926e-07 -6.69313006515095e-08 -1.199092551436355e-07 7.912080869281786e-08 5.36457860466171e-08 -5.683728946186355e-08 -1.362093127476376e-08 2.573186506568777e-08 
5.258051610322064 2.260431471184415e-07 -7.771804640202725e-08 -1.392692042817271e-07 9.170508521443887e-08 6.221344245145984e-08 -6.571745189523045e-08 -1.578892713135213e-08 2.968538732683113e-08 
5.264052810562112 2.625659725134284e-07 -9.015236721272321e-08 -1.615924689348029e-07 1.061823398781011e-07 7.207606441807905e-08 -7.590582124712895e-08 -1.828319262122818e-08 3.420988063551766e-08 
5.27005401080216 3.046878640608962e-07 -1.044713679431326e-07 -1.873065678195442e-07 1.228201278208048e-07 8.341771933547391e-08 -8.758276039388411e-08 -2.114984369852545e-08 3.938219200513298e-08 
5.276055211042208 3.532187290863433e-07 -1.209440583315502e-07 -2.168967185636747e-07 1.419212325177125e-07 9.64468752905268e-08 -1.009516696006652e-07 -2.44410637663123e-08 4.528869297030181e-08 
5.282056411282256 4.090782288880282e-07 -1.39875325840668e-07 -2.509130488003422e-07 1.63827935578573e-07 1.113993834119802e-07 -1.162416734031438e-07 -2.821583754752327e-08 5.202634764599091e-08 
5.288057611522304 4.733095799830372e-07 -1.616103595422358e-07 -2.899786297524263e-07 1.889267545855357e-07 1.285417906757022e-07 -1.337105872800041e-07 -3.254076503723145e-08 5.970388606391816e-08 
5.294058811762352 5.470949441189359e-07 -1.865395706556759e-07 -3.347984160070128e-07 2.176536940508908e-07 1.481750154749675e-07 -1.536481891218191e-07 -3.749096317615323e-08 6.844309141607108e-08 
5.3000600120024 6.317725710715508e-07 -2.151040592985038e-07 -3.861691824819518e-07 2.505000581816997e-07 1.706384209057728e-07 -1.76379822261226e-07 -4.315106348370794e-08 7.838021034461523e-08 
5.306061212242448 7.288558729086218e-07 -2.478016812149351e-07 -4.449905573881236e-07 2.880188779543863e-07 1.963143235232666e-07 -2.022703586605946e-07 -4.961631451961829e-08 8.966749593526538e-08 
5.312062412482496 8.400546241122431e-07 -2.851937727330299e-07 -5.122772583123426e-07 3.308320090293669e-07 2.256329782947076e-07 -2.317285527535553e-07 -5.699379870604112e-08 1.024748935947268e-07 
5.318063612722544 9.672984987685387e-07 -3.279125969694578e-07 -5.891726474053776e-07 3.796379612758683e-07 2.59078083609808e-07 -2.652118184021777e-07 -6.540377373745391e-08 1.169918805191515e-07 
5.324064812962592 1.11276317399882e-06 -3.766695793631141e-07 -6.769637310750541e-07 4.352205251312606e-07 2.97192853512931e-07 -3.03231463457513e-07 -7.498114953262877e-08 1.334294699863815e-07 
5.33006601320264 1.278899247969116e-06 -4.322644059822556e-07 -7.770977395719704e-07 4.984582646871876e-07 3.40586707794582e-07 -3.463584184920594e-07 -8.587711244137279e-08 1.520223922263691e-07 
5.336067213442688 1.468464241219637e-06 -4.95595063721423e-07 -8.912004324297192e-07 5.703349522747663e-07 3.899426342222025e-07 -3.952294984017037e-07 -9.826090920736699e-08 1.730314641374529e-07 
5.342068413682736 1.684557971745575e-06 -5.676689074900444e-07 -1.021096286895306e-06 6.519510244097682e-07 4.460252810015035e-07 -4.505542377440054e-07 -1.123218040061245e-07 1.967461606166013e-07 
5.348069613922784 1.930661617276264e-06 -6.496148457987623e-07 -1.168830738269201e-06 7.445361442507555e-07 5.096898415373983e-07 -5.13122342880212e-07 -1.28271222722189e-07 2.234874007543565e-07 
5.354070814162832 2.210680802578467e-06 -7.426967427752388e-07 -1.336694653476033e-06 8.494629612115359e-07 5.818917977044738e-07 -5.838118062098309e-07 -1.463450995001707e-07 2.536105626046162e-07 
5.36007201440288 2.528993075385423e-06 -8.483281415899909e-07 -1.527251232211334e-06 9.682621640447414e-07 6.636975921359583e-07 -6.635977300171751e-07 -1.668064414976307e-07 2.875087406697478e-07 
5.366073214642928 2.890500161755393e-06 -9.680884215441834e-07 -1.743365543658576e-06 1.102638929564151e-06 7.562963044906572e-07 -7.53561909676052e-07 -1.899481286812569e-07 3.256162606365603e-07 
5.372074414882976 3.300685420316472e-06 -1.103740508662841e-06 -1.988236921042136e-06 1.254490875185624e-06 8.610124112510288e-07 -8.549032281670154e-07 -2.160959664378432e-07 3.684124662516473e-07 
5.378075615123024 3.765676944976431e-06 -1.257250267543921e-06 -2.265434451169649e-06 1.425927629623309e-06 9.793197133321398e-07 -9.689489160354235e-07 -2.45612009714361e-07 4.164257935284215e-07 
5.384076815363072 4.292316797279951e-06 -1.430807710428874e-06 -2.578935811610648e-06 1.619292142359697e-06 1.112856520628396e-06 -1.097166733040252e-06 -2.788981783524439e-07 4.70238147725211e-07 
5.39007801560312 4.888236882684848e-06 -1.626850167973867e-06 -2.933169724242442e-06 1.837183858892357e-06 1.263442187578155e-06 -1.241178129794102e-06 -3.164001842368585e-07 5.304895987161423e-07 
5.396079215843169 5.561942019600545e-06 -1.848087574999742e-06 -3.333062310547288e-06 2.082483895221211e-06 1.433095098868804e-06 -1.402772449653308e-06 -3.586117918293529e-07 5.978834104858335e-07 
5.402080416083217 6.322900786073329e-06 -2.097530033567273e-06 -3.78408765124079e-06 2.358382351548723e-06 1.624052209517237e-06 -1.58392223296113e-06 -4.060794346023865e-07 6.731914205064938e-07 
5.408081616323265 7.181644766490778e-06 -2.378517825042699e-06 -4.292322870516963e-06 2.668407911688916e-06 1.838790248721179e-06 -1.786799687452748e-06 -4.594072108147462e-07 7.572597846928763e-07 
5.414082816563313 8.149876859579629e-06 -2.694754052363918e-06 -4.86450808337054e-06 3.016459881183373e-06 2.080048702060582e-06 -2.01379439017248e-06 -5.192622829753291e-07 8.510151034673638e-07 
5.420084016803361 9.240589349239977e-06 -3.050340103463133e-06 -5.508111563055176e-06 3.406842823563382e-06 2.350854691808215e-06 -2.267532287604367e-06 -5.86380706214145e-07 9.554709441948407e-07 
5.426085217043409 1.046819248133749e-05 -3.449814136716271e-06 -6.231400504702297e-06 3.84430396053339e-06 2.654549880253889e-06 -2.550896061848056e-06 -6.615737116119084e-07 1.071734774855173e-06 
5.432086417283457 1.184865433239088e-05 -3.898192799337548e-06 -7.043517780397015e-06 4.334073508033872e-06 2.994819526024208e-06 -2.86704693155288e-06 -7.457344713216894e-07 1.201015323300401e-06 
5.438087617523505 1.339965280005703e-05 -4.401016399779395e-06 -7.954565100512832e-06 4.881908126120181e-06 3.375723828352681e-06 -3.219447956922462e-06 -8.398453730376957e-07 1.344630375784248e-06 
5.444088817763553 1.514074059032919e-05 -4.964397765389388e-06 -8.975693015766253e-06 5.494137666311576e-06 3.80173169908355e-06 -3.611888918387442e-06 -9.449858320161229e-07 1.504015027643547e-06 
5.450090018003601 1.709352412230257e-05 -5.59507502676623e-06 -1.011919821417563e-05 6.177715405461767e-06 4.277757106833823e-06 -4.048512838480806e-06 -1.06234066941945e-06 1.680730398044939e-06 
5.456091218243649 1.928185731809134e-05 -6.300468580392998e-06 -1.139862858679652e-05 6.940271960214745e-06 4.809198142145254e-06 -4.53384421600399e-06 -1.193209086225995e-06 1.876472819576361e-06 
5.462092418483697 2.173205129284289e-05 -7.088742491146975e-06 -1.282889655564871e-05 7.790173080669153e-06 5.401978956581972e-06 -5.072819040706339e-06 -1.339014262307911e-06 2.093083512152062e-06 
5.468093618723745 2.447310100761509e-05 -7.968870606126561e-06 -1.442640117652862e-05 8.736581525909096e-06 6.062594732516414e-06 -5.670816655379407e-06 -1.501313610519194e-06 2.332558749203688e-06 
5.474094818963793 2.753692999596151e-05 -8.950707660826152e-06 -1.620915954828303e-05 9.789523227492954e-06 6.798159843740997e-06 -6.333693530453181e-06 -1.681809715736494e-06 2.597060522439679e-06 
5.480096019203841 3.095865432319242e-05 -1.004506566795391e-05 -1.819694807846726e-05 1.095995794974463e-05 7.616459369984813e-06 -7.067819013837237e-06 -1.882361988744448e-06 2.888927709563661e-06 
5.486097219443889 3.477686698520403e-05 -1.126379588804232e-05 -2.041145417296651e-05 1.225985465768092e-05 8.526004130841959e-06 -7.880113115837839e-06 -2.104999064638569e-06 3.210687747242409e-06 
5.492098419683937 3.903394400123296e-05 -1.261987668936029e-05 -2.287643893396505e-05 1.370227180454738e-05 9.53608940646473e-06 -8.778086385465536e-06 -2.351931975016605e-06 3.565068809299422e-06 
5.498099619923985 4.377637350160999e-05 -1.412750761240593e-05 -2.561791146642277e-05 1.530144275113389e-05 1.065685751357261e-05 -9.769881930290027e-06 -2.625568122627471e-06 3.955012487576052e-06 
5.504100820164033 4.905510915724961e-05 -1.5802209961342e-05 -2.866431540778382e-05 1.70728665282076e-05 1.189936440580514e-05 -1.086431962716466e-05 -2.928526086328871e-06 4.383686970144639e-06 
5.510102020404081 5.492594934187828e-05 -1.766093425102745e-05 -3.204672830879415e-05 1.90334041514411e-05 1.327565046713103e-05 -1.207094256559647e-05 -3.263651283153872e-06 4.854500708574221e-06 
5.516103220644129 6.14499434605263e-05 -1.972217484368967e-05 -3.579907450484102e-05 2.120138069503081e-05 1.479881566583929e-05 -1.340006575924797e-05 -3.63403251298648e-06 5.371116562738037e-06 
5.522104420884177 6.869382691819001e-05 -2.200609211365982e-05 -3.995835212692719e-05 2.359669332569579e-05 1.648309923450621e-05 -1.486282715399088e-05 -4.043019409779621e-06 5.937466408213132e-06 
5.528105621124225 7.673048624041495e-05 -2.453464248183867e-05 -4.456487490902844e-05 2.624092549282517e-05 1.834396403817227e-05 -1.64712409530622e-05 -4.494240821399649e-06 6.557766187657773e-06 
5.534106821364273 8.563945589241534e-05 -2.73317166635478e-05 -4.966252945391638e-05 2.915746746309876e-05 2.039818578869788e-05 -1.823825327117399e-05 -4.99162413803318e-06 7.236531383665452e-06 
5.540108021604321 9.550744837477754e-05 -3.042328647402851e-05 -5.529904862231474e-05 3.237164337884785e-05 2.26639472578139e-05 -2.017780011987545e-05 -5.539415586629104e-06 7.978592886490464e-06 
5.546109221844369 0.0001064289192013164 -3.383756053494246e-05 -6.152630171023791e-05 3.591084500864887e-05 2.516093763466087e-05 -2.230486771604128e-05 -6.142201506055595e-06 8.78911322572655e-06 
5.552110422084417 0.0001185066683877532 -3.76051492226736e-05 -6.840060207627691e-05 3.980467234605958e-05 2.79104571655396e-05 -2.463555509404942e-05 -6.804930614514463e-06 9.673603130506437e-06 
5.558111622324465 0.0001318524800980416 -4.175923919489393e-05 -7.598303287417731e-05 4.408508119791821e-05 3.093552720409538e-05 -2.71871389900004e-05 -7.532937277260363e-06 1.063793837808759e-05 
5.564112822564513 0.0001465878021078347 -4.633577782559593e-05 -8.433979153602498e-05 4.878653788714761e-05 3.426100578914675e-05 -2.997814095321814e-05 -8.33196577880651e-06 1.168837688581202e-05 
5.570114022804561 0.0001628444667511973 -5.137366787047681e-05 -9.354255363743494e-05 5.394618117644565e-05 3.791370885477611e-05 -3.302839662625281e-05 -9.208195599552181e-06 1.283157599639217e-05 
5.576115223044609 0.0001807654550166343 -5.69149726740405e-05 -0.0001036688567580557 5.960399149852493e-05 4.192253716304507e-05 -3.635912711968911e-05 -1.016826769212935e-05 1.407460990129781e-05 
5.582116423284657 0.0002005057054512338 -6.300513221692739e-05 -0.0001148025049281538 6.580296755561242e-05 4.631860903371282e-05 -3.999301239225824e-05 -1.121931174772959e-05 1.542498714172373e-05 
5.588117623524705 0.000222232969516592 -6.969319028664949e-05 -0.0001270339942247722 7.258931032567002e-05 5.113539892755599e-05 -4.39542665300754e-05 -1.236897443723063e-05 1.689066812122513e-05 
5.594118823764753 0.0002461287150165717 -7.703203303696341e-05 -0.0001404609600486586 8.001261448518507e-05 5.640888192024962e-05 -4.826871480130404e-05 -1.362544860609225e-05 1.848008255864663e-05 
5.600120024004801 0.0002723890791842133 -8.507863918042976e-05 -0.0001551886465755723 8.81260672283599e-05 6.217768408221931e-05 -5.296387234421511e-05 -1.499750339573031e-05 2.020214680446575e-05 
