# Energy: -113.5212635407039
# J: 1
# M: -1
# Lmin: 1
# Lmax: 9
# grid size: 5000
# h: 0.006001200240048009
5 0 0 0 0 0 0 0 0 
5.006001200240048 2.813120527848255e-12 -1.008438510561023e-12 -1.798044460076363e-12 1.262821334756383e-12 8.449884428440485e-13 -9.793424311272975e-13 -2.18005081029793e-13 4.755549814149649e-13 
5.012002400480096 5.73527290357154e-12 -2.055488639694697e-12 -3.665103166818171e-12 2.573220220350921e-12 1.721979820010445e-12 -1.994786713583885e-12 -4.442465382788312e-13 9.682843365189491e-13 
5.018003600720144 8.877096081695897e-12 -3.180323745138464e-12 -5.671205340019791e-12 3.979463180088916e-12 2.663450365302282e-12 -3.082960947022225e-12 -6.87085540383348e-13 1.495621866947522e-12 
5.024004800960192 1.235469549639878e-11 -4.424023267956646e-12 -7.889806191167788e-12 5.532126034710855e-12 3.70344714877665e-12 -4.282211581777351e-12 -9.552892405463895e-13 2.075810073146436e-12 
5.03000600120024 1.629373269658998e-11 -5.830996930139622e-12 -1.040034135918982e-11 7.285809987601194e-12 4.8787507042222e-12 -5.633865630989185e-12 -1.258328637437957e-12 2.728481923526284e-12 
5.036007201440288 2.083365202167759e-11 -7.450455462214327e-12 -1.329086612593847e-11 9.300912818097451e-12 6.230076196892381e-12 -7.183533259529449e-12 -1.606686581565359e-12 3.475262153751633e-12 
5.042008401680336 2.61321836971724e-11 -9.337975334316746e-12 -1.666086490508151e-11 1.164551063461583e-11 7.803350999044313e-12 -8.982489667054332e-12 -2.012185534489536e-12 4.340404997296715e-12 
5.048009601920384 3.237026139424856e-11 -1.155720447663034e-11 -2.062431569531179e-11 1.43974050863419e-11 9.651106235016563e-12 -1.108917488014894e-11 -2.488344630091912e-12 5.351485264554288e-12 
5.054010802160432 3.975749553790143e-11 -1.418175700027212e-11 -2.531309612223918e-11 1.764639206873246e-11 1.183402071342363e-11 -1.357085086471944e-11 -3.050775818909203e-12 6.540160115855902e-12 
5.06001200240048 4.853835109032514e-11 -1.729734734374645e-11 -3.088082214229642e-11 2.149681064900151e-11 1.44226575923762e-11 -1.650545718405245e-11 -3.717629376630251e-12 7.943019696754766e-12 
5.066013202640528 5.899918996902143e-11 -2.100421800115002e-11 -3.750721732029776e-11 2.607043510262631e-11 1.749943707277771e-11 -1.998370921113499e-11 -4.510099813792812e-12 9.602546011674479e-12 
5.072014402880576 7.14763536087084e-11 -2.541992000801238e-11 -4.540311977275295e-11 3.150977855600659e-11 2.116089236465415e-11 -2.411148663339851e-11 -5.453004230937587e-12 1.156820100114137e-11 
5.078015603120624 8.636548048438883e-11 -3.068251167764683e-11 -5.481624541195283e-11 3.798188377818432e-11 2.552026112929069e-11 -2.901256466450772e-11 -6.575446424058018e-12 1.38976667614019e-11 
5.084016803360672 1.041322768238587e-10 -3.695424873616682e-11 -6.603784011057262e-11 4.568268519457469e-11 3.071047059670219e-11 -3.483174602183529e-11 -7.911581567064053e-12 1.665826321254576e-11 
5.09001800360072 1.253249864871839e-10 -4.442584806787661e-11 -7.941036996554818e-11 5.484203627706481e-11 3.688758164616014e-11 -4.173845837855449e-11 -9.501498094347844e-12 1.992857129737052e-11 
5.096019203840768 1.505888383990912e-10 -5.332141785125126e-11 -9.533641815483619e-11 6.572950819456904e-11 4.423476538944381e-11 -4.993088971095479e-11 -1.13922354954277e-11 2.380029299864968e-11 
5.102020404080816 1.806827873899748e-10 -6.390415906110162e-11 -1.142889791795346e-10 7.866107910926068e-11 5.296689530318971e-11 -5.964074280495554e-11 -1.363895913764617e-11 2.838038312285807e-11 
5.108021604320864 2.164989073140975e-10 -7.648295728114883e-11 -1.368233668402575e-10 9.400684892429871e-11 6.333584882726434e-11 -7.113870024554324e-11 -1.630631597900198e-11 3.37934919443047e-11 
5.114022804560912 2.590848444311641e-10 -9.141999968372652e-11 -1.635909814293045e-10 1.121999318014256e-10 7.5636624707391e-11 -8.474070258744829e-11 -1.946999815272264e-11 4.018476247021483e-11 
5.12002400480096 3.096697949027617e-10 -1.091395700847316e-10 -1.953552146934404e-10 1.337466985681074e-10 9.021439635710945e-11 -1.008151552066905e-10 -2.321854493378286e-11 4.772303131425034e-11 
5.126025205041008 3.696945335954885e-10 -1.301381953923148e-10 -2.33009808547392e-10 1.592385634451968e-10 1.074726373095189e-10 -1.197911936857759e-10 -2.765541757526807e-11 5.660448799724097e-11 
5.132026405281056 4.408460930134498e-10 -1.549963397830933e-10 -2.776000257557043e-10 1.893655345936522e-10 1.278824726048172e-10 -1.421681536286123e-10 -3.290138597378615e-11 6.705685397766437e-11 
5.138027605521104 5.250977720127941e-10 -1.843918688328341e-10 -3.303470383617459e-10 2.249317760745583e-10 1.51993429916482e-10 -1.685264086861279e-10 -3.909727113717438e-11 7.934414990288658e-11 
5.144028805761153 6.247552449874124e-10 -2.191155349009202e-10 -3.926759930926668e-10 2.668734602390385e-10 1.804457865782994e-10 -1.995397604649219e-10 -4.640709303845558e-11 9.377212752150537e-11 
5.150030006001201 7.425096445703487e-10 -2.600887676506497e-10 -4.662482729302251e-10 3.162792246396091e-10 2.139847336787108e-10 -2.359895860673016e-10 -5.502167970626675e-11 1.106944514673183e-10 
5.156031206241249 8.814986057944875e-10 -3.083840900432657e-10 -5.529985411922517e-10 3.744135866368255e-10 2.534766063027323e-10 -2.78780973463612e-10 -6.516280038790203e-11 1.305197257801448e-10 
5.162032406481297 1.04537638844318e-09 -3.652485208686116e-10 -6.551772295647202e-10 4.427437123491703e-10 2.999274601127339e-10 -3.289611019324262e-10 -7.708789339615938e-11 1.537194706351984e-10 
5.168033606721345 1.238394338469093e-09 -4.321303703007861e-10 -7.753992153746355e-10 5.229699848756724e-10 3.545043090799128e-10 -3.877401546404112e-10 -9.109546789046738e-11 1.808371663815295e-10 
5.174034806961393 1.46549311047693e-09 -5.107098855616086e-10 -9.16699526885863e-10 6.170608702575104e-10 4.185593776460675e-10 -4.565150833048909e-10 -1.075312684272418e-10 2.124984947150174e-10 
5.180036007201441 1.732408253107675e-09 -6.029342600459342e-10 -1.082597019496646e-09 7.272926389182592e-10 4.936577632748623e-10 -5.368965810356867e-10 -1.267953017310936e-10 2.494229207091484e-10 
5.186037207441489 2.045790959639262e-09 -7.110575817600561e-10 -1.277167081462734e-09 8.562945658484484e-10 5.816089526356078e-10 -6.307396591499363e-10 -1.493498368806643e-10 2.924367745766886e-10 
5.192038407681537 2.413346009306773e-09 -8.376863662402235e-10 -1.505124556292721e-09 1.007100305130574e-09 6.845026869723435e-10 -7.40178267269286e-10 -1.757285030702424e-10 3.424880085188839e-10 
5.198039607921585 2.843989172996097e-09 -9.858313958910689e-10 -1.771918211481412e-09 1.183206214124179e-09 8.047497299986447e-10 -8.676644436314294e-10 -2.065466234073164e-10 4.006628219194285e-10 
5.204040808161633 3.348026632516287e-09 -1.158966672599459e-09 -2.083838241076172e-09 1.388637490373403e-09 9.451281554073428e-10 -1.016012534578956e-09 -2.42512938950008e-10 4.682043675428991e-10 
5.210042008401681 3.937359268242691e-09 -1.361096384273908e-09 -2.448138464122809e-09 1.628023080726106e-09 1.108835841310045e-09 -1.188449078941507e-09 -2.844428944969987e-10 5.465337723872636e-10 
5.216043208641729 4.625715008388576e-09 -1.596830889420794e-09 -2.873175073827837e-09 1.906680427968128e-09 1.299549936172963e-09 -1.388669014828027e-09 -3.332736766432021e-10 6.372737295032035e-10 
5.222044408881777 5.428912807570211e-09 -1.871472837837757e-09 -3.368564004927522e-09 2.230711236221109e-09 1.521494145676401e-09 -1.620898933530446e-09 -3.900812154411317e-10 7.422749415146242e-10 
5.228045609121824 6.365162235972132e-09 -2.191114670878661e-09 -3.945359221007693e-09 2.607109563210205e-09 1.779514783013273e-09 -1.889968178154342e-09 -4.560993838018268e-10 8.636457228387021e-10 
5.234046809361872 7.455403116830994e-09 -2.562748882477542e-09 -4.616254481225798e-09 3.043883686100275e-09 2.079166627110605e-09 -2.20138866358991e-09 -5.327416536783819e-10 1.00378509579188e-09 
5.24004800960192 8.72369015292553e-09 -2.994392573223679e-09 -5.395811429022114e-09 3.550193338786021e-09 2.426809744796311e-09 -2.561444379878321e-09 -6.216254952545085e-10 1.165419745958726e-09 
5.246049209841968 1.019762803633837e-08 -3.495227995328724e-09 -6.300717156069041e-09 4.136504083200928e-09 2.829718554766056e-09 -2.97729163327955e-09 -7.245998349716246e-10 1.351645234467654e-09 
5.252050410082016 1.190886314426884e-08 -4.075760967453136e-09 -7.350074735121551e-09 4.814760756315995e-09 3.296204544092577e-09 -3.457071178775211e-09 -8.437759204385904e-10 1.565971899229611e-09 
5.258051610322064 1.389363859173399e-08 -4.747999236257223e-09 -8.565730587954095e-09 5.598582129001437e-09 3.835754192757521e-09 -4.0100335047117e-09 -9.815619752521595e-10 1.812375913814772e-09 
5.264052810562112 1.61934201445032e-08 -5.525653077468486e-09 -9.972642961687675e-09 6.503479123824053e-09 4.459183819104141e-09 -4.646678645169054e-09 -1.140702064692774e-09 2.095356011521312e-09 
5.27005401080216 1.885560129777519e-08 -6.424360664529025e-09 -1.159929623114738e-08 7.547099167181012e-09 5.178813230071029e-09 -5.378912018788488e-09 -1.324319634333689e-09 2.419996423373069e-09 
5.276055211042208 2.193429670344515e-08 -7.461940988883639e-09 -1.347816622920219e-08 8.749499497985084e-09 6.00866024546797e-09 -6.22021792455481e-09 -1.535966227999955e-09 2.792036622301555e-09 
5.282056411282256 2.549123408715749e-08 -8.65867739412871e-09 -1.564624233421673e-08 1.013345252149641e-08 6.964658366320282e-09 -7.185852465744892e-09 -1.779675939429263e-09 3.217948511641175e-09 
5.288057611522304 2.959675584185827e-08 -1.003763508806161e-08 -1.81456126168143e-08 1.172478658393941e-08 8.064900074390286e-09 -8.293057823237502e-09 -2.06002620361335e-09 3.705021744298703e-09 
5.294058811762352 3.43309426237379e-08 -1.162501632370206e-08 -2.102411897027001e-08 1.355276585236015e-08 9.32990848436233e-09 -9.561299958929017e-09 -2.382205589332133e-09 4.261457909535886e-09 
5.3000600120024 3.978487251610881e-08 -1.34505572942064e-08 -2.433608982330832e-08 1.565051331588543e-08 1.078294032284974e-08 -1.101253199938118e-08 -2.752089314028594e-09 4.896474377195632e-09 
5.306061212242448 4.606203067404737e-08 -1.554797116891887e-08 -2.814315876428406e-08 1.805548128025521e-08 1.245032348036562e-08 -1.267148572927747e-08 -3.176323266105408e-09 5.620418644354407e-09 
5.312062412482496 5.327988582503161e-08 -1.795544211029956e-08 -3.251517819520966e-08 2.080997410832166e-08 1.436183267472569e-08 -1.456599381398049e-08 -3.66241738814541e-09 6.444894086719836e-09 
5.318063612722544 6.157165158613697e-08 -2.071617555587614e-08 -3.753123798650215e-08 2.396172836623032e-08 1.655110707805624e-08 -1.672734557061551e-08 -4.218849347654843e-09 7.38289807651131e-09 
5.324064812962592 7.108825227475618e-08 -2.387901052746156e-08 -4.328080002240462e-08 2.756455596928553e-08 1.905611409570804e-08 -1.919067931775686e-08 -4.855179499881145e-09 8.448973489932919e-09 
5.33006601320264 8.200051474574001e-08 -2.74991002434565e-08 -4.986496051664062e-08 3.167905638407685e-08 2.191966384496069e-08 -2.199541455500654e-08 -5.582178230237572e-09 9.659374690512957e-09 
5.336067213442688 9.450160979208102e-08 -3.163866786093677e-08 -5.73978530419013e-08 3.63734044352873e-08 2.518997926546893e-08 -2.51857274555051e-08 -6.411966852036743e-09 1.103224913934985e-08 
5.342068413682736 1.088097688078356e-07 -3.636784476423437e-08 -6.60082063592511e-08 4.172422078762789e-08 2.89213272029581e-08 -2.88110733966093e-08 -7.358173328741529e-09 1.258783584944492e-08 
5.348069613922784 1.251713037402407e-07 -4.176559944768127e-08 -7.584107235850723e-08 4.781753272639331e-08 3.317471624369825e-08 -3.292676050643056e-08 -8.436104188916768e-09 1.434868196855329e-08 
5.354070814162832 1.43863960862528e-07 -4.792076571391168e-08 -8.705974073219289e-08 5.47498334449606e-08 3.801866754071561e-08 -3.759457846638891e-08 -9.662934106621284e-09 1.633987884304408e-08 
5.36007201440288 1.652006415895756e-07 -5.493317962739372e-08 -9.98478584078766e-08 6.262924866480559e-08 4.35300653644307e-08 -4.288348708203467e-08 -1.105791473020846e-08 1.85893189837837e-08 
5.366073214642928 1.895335264453332e-07 -6.291493542743012e-08 -1.144117732606923e-07 7.157682006381818e-08 4.979509463127661e-08 -4.887036941565811e-08 -1.264260445847023e-08 2.112797542365783e-08 
5.372074414882976 2.172586413840822e-07 -7.199177141742657e-08 -1.309831232236443e-07 8.172791567224819e-08 5.691027321461267e-08 -5.564085456405835e-08 -1.444112098480124e-08 2.39902050245925e-08 
5.378075615123024 2.48820908977415e-07 -8.230459770938139e-08 -1.498216936119449e-07 9.323377811273916e-08 6.498358742359034e-08 -6.3290215462573e-08 -1.648041855758251e-08 2.721407735934652e-08 
5.384076815363072 2.847197305157761e-07 -9.401117861584264e-08 -1.712185672830292e-07 1.062632223116684e-07 7.413573964812878e-08 -7.19243474012425e-08 -1.879059203825576e-08 3.084173085939811e-08 
5.39007801560312 3.255151488479867e-07 -1.072879834474154e-07 -1.954995941698372e-07 1.210044950932695e-07 8.450151781229386e-08 -8.166083324981211e-08 -2.140520997750994e-08 3.491975798436173e-08 
5.396079215843169 3.718346458048872e-07 -1.223322204935773e-07 -2.230292087550988e-07 1.376673098854132e-07 9.623129695448465e-08 -9.263010170404137e-08 -2.436167907451706e-08 3.9499621229919e-08 
5.402080416083217 4.243806323345012e-07 -1.393640700392026e-07 -2.542146262021564e-07 1.564850706158664e-07 1.094926839611309e-07 -1.049766851852011e-07 -2.770164253406942e-08 4.463810184955588e-08 
5.408081616323265 4.839386940262942e-07 -1.586291333997739e-07 -2.895104501265273e-07 1.77717299759496e-07 1.244723172211223e-07 -1.188605843462504e-07 -3.147141499157373e-08 5.039778321973275e-08 
5.414082816563313 5.513866595313111e-07 -1.804011161455094e-07 -3.29423727384913e-07 2.01652286409084e-07 1.413778337408068e-07 -1.344587464603662e-07 -3.572245683587343e-08 5.684757082770105e-08 
5.420084016803361 6.277045645031165e-07 -2.049847649291178e-07 -3.745194877773184e-07 2.286099711837405e-07 1.604400170637866e-07 -1.519666652884622e-07 -4.051189092446934e-08 6.406325090518515e-08 
5.426085217043409 7.139855891011112e-07 -2.327190786338407e-07 -4.254268092056393e-07 2.589450857575605e-07 1.819151401753499e-07 -1.716001103400688e-07 -4.590306485448901e-08 7.212808976869493e-08 
5.432086417283457 8.114480528220941e-07 -2.63980815917894e-07 -4.828454516103514e-07 2.930505657850586e-07 2.060875184374713e-07 -1.935969937543028e-07 -5.196616212525114e-08 8.11334759573938e-08 
5.438087617523505 9.214485564665353e-07 -2.991883226479967e-07 -5.475531059171686e-07 3.313612570165024e-07 2.332722884958354e-07 -2.182193833322365e-07 -5.877886570393675e-08 9.117960728124959e-08 
5.444088817763553 1.045496367411019e-06 -3.388057041877555e-07 -6.204133072686243e-07 3.743579354326945e-07 2.638184300240345e-07 -2.457556705462188e-07 -6.642707768409799e-08 1.02376224904623e-07 
5.450090018003601 1.185269151054992e-06 -3.833473690351911e-07 -7.023840649917221e-07 4.225716632816402e-07 2.981120481203691e-07 -2.765229026328307e-07 -7.500569890679597e-08 1.148433965924505e-07 
5.456091218243649 1.342630158344972e-06 -4.33382971886183e-07 -7.945272650617665e-07 4.76588503965167e-07 3.365799351476621e-07 -3.108692881411987e-07 -8.4619472595277e-08 1.287123512366649e-07 
5.462092418483697 1.519646986658317e-06 -4.895427858351967e-07 -8.980189042631567e-07 5.370546197976764e-07 3.796934318039641e-07 -3.491768855541566e-07 -9.538389623539065e-08 1.441263667583394e-07 
5.468093618723745 1.718612039056274e-06 -5.52523535108957e-07 -1.014160218818561e-06 6.046817777370672e-07 4.279726082294385e-07 -3.91864484822866e-07 -1.074262061144388e-07 1.612417134451147e-07 
5.474094818963793 1.942064814995623e-06 -6.23094721459851e-07 -1.144389773955728e-06 6.802532892642723e-07 4.819907869891338e-07 -4.393906918523896e-07 -1.208864391097651e-07 1.8022865473258e-07 
5.480096019203841 2.192816174022352e-06 -7.021054791203859e-07 -1.290296584702902e-06 7.646304116570367e-07 5.423794308194876e-07 -4.922572261426261e-07 -1.359185764939646e-07 2.012725073712829e-07 
5.486097219443889 2.473974722759908e-06 -7.904919950339554e-07 -1.453634342144756e-06 8.587592389592323e-07 6.098334190845239e-07 -5.510124419219366e-07 -1.526917746948436e-07 2.245747628367323e-07 
5.492098419683937 2.788975484648386e-06 -8.892855329258514e-07 -1.636336823425597e-06 9.636781119823413e-07 6.851167379517374e-07 -6.162550832056718e-07 -1.713916881138148e-07 2.503542717369712e-07 
5.498099619923985 3.141611021386925e-06 -9.996211016567145e-07 -1.840534567948684e-06 1.080525577683271e-06 7.69068610362988e-07 -6.886382832643089e-07 -1.922218892647907e-07 2.788484928498596e-07 
5.504100820164033 3.536065184875508e-06 -1.122746810202413e-06 -2.06857290648229e-06 1.210548929234537e-06 8.626100929374301e-07 -7.688738189915677e-07 -2.154053916452453e-07 3.103148082789776e-07 
5.510102020404081 3.976949688638554e-06 -1.260033953523033e-06 -2.323031434235451e-06 1.355113359030331e-06 9.66751167996011e-07 -8.577366306171431e-07 -2.411862808902551e-07 3.450319060519397e-07 
5.516103220644129 4.469343698232528e-06 -1.412987875511975e-06 -2.606745023399421e-06 1.515711757746191e-06 1.08259835993463e-06 -9.560696171068926e-07 -2.698314598872266e-07 3.833012312968093e-07 
5.522104420884177 5.018836650983349e-06 -1.583259657145822e-06 -2.922826475152824e-06 1.693975193380885e-06 1.211362906189077e-06 -1.064788717430569e-06 -3.016325136417403e-07 4.254485069202257e-07 
5.528105621124225 5.631574526554027e-06 -1.772658679877678e-06 -3.274690915686848e-06 1.891684104946776e-06 1.354369514022599e-06 -1.184888287648726e-06 -3.369076997815089e-07 4.71825324473867e-07 
5.534106821364273 6.314309801293069e-06 -1.983166116221594e-06 -3.666082045406853e-06 2.110780246128235e-06 1.513065735319034e-06 -1.317446783471236e-06 -3.760040706637617e-07 5.228108056330746e-07 
5.540108021604321 7.074455331042736e-06 -2.216949401352495e-06 -4.101100355093369e-06 2.353379414785329e-06 1.689031992472914e-06 -1.463632757565116e-06 -4.192997331092191e-07 5.788133344221289e-07 
5.546109221844369 7.920142419072019e-06 -2.476377741383624e-06 -4.584233427440354e-06 2.621785004630142e-06 1.883992289324564e-06 -1.624711180433964e-06 -4.672062518209737e-07 6.402723600040874e-07 
5.552110422084417 8.86028333801935e-06 -2.764038715769387e-06 -5.12038844701412e-06 2.918502415733268e-06 2.099825641884192e-06 -1.802050093150599e-06 -5.201712025566501e-07 7.076602695087675e-07 
5.558111622324465 9.904638587157641e-06 -3.082756033002539e-06 -5.714927046270914e-06 3.246254360715208e-06 2.338578264314938e-06 -1.997127599593432e-06 -5.786808811047662e-07 7.814843299999467e-07 
5.564112822564513 1.106388917890065e-05 -3.435608500416777e-06 -6.373702619813478e-06 3.607997103528509e-06 2.602476546291013e-06 -2.211539205111205e-06 -6.432631740687972e-07 8.622886982818921e-07 
5.570114022804561 1.23497142612211e-05 -3.825950270454047e-06 -7.103100243532897e-06 4.00693766762756e-06 2.893940858403555e-06 -2.447005507715264e-06 -7.144905973824484e-07 9.506564968158669e-07 
5.576115223044609 1.377487439551189e-05 -4.257432427194391e-06 -7.910079339646515e-06 4.446552050040009e-06 3.215600222742547e-06 -2.705380246969379e-06 -7.929835083645651e-07 1.047211953559309e-06 
5.582116423284657 1.535330082235358e-05 -4.734025978258411e-06 -8.802219232878216e-06 4.930604477382417e-06 3.570307886127668e-06 -2.988658714709919e-06 -8.7941349696927e-07 1.152622603054252e-06 
5.588117623524705 1.710019106060836e-05 -5.260046318360405e-06 -9.787767747105863e-06 5.463167739188447e-06 3.961157833682298e-06 -3.298986530580486e-06 -9.745069616937499e-07 1.26760154557774e-06 
5.594118823764753 1.903211119820089e-05 -5.840179231796377e-06 -1.08756929956911e-05 6.048644633025584e-06 4.391502280531971e-06 -3.638668784100959e-06 -1.079048875369943e-06 1.39290976062608e-06 
5.600120024004801 2.116710524581413e-05 -6.479508501975079e-06 -1.207573852237752e-05 6.69179055475127e-06 4.864970179348904e-06 -4.010179543608855e-06 -1.193886745784656e-06 1.529358470437836e-06 
