# Energy: -6.155561654595028
# J: 1
# M: -1
# Lmin: 1
# Lmax: 9
# grid size: 5000
# h: 0.006001200240048009
5 0 0 0 0 0 0 0 0 
5.006001200240048 6.8985052126829e-11 -2.472716726102362e-11 -4.412325138254118e-11 3.099223883601684e-11 2.075770084081962e-11 -2.406160599223535e-11 -5.361585496191723e-12 1.169490229959774e-11 
5.012002400480096 1.405587624306184e-10 -5.037066356818606e-11 -8.988622696693273e-11 6.311453150255879e-11 4.227663216934223e-11 -4.898155735995749e-11 -1.091937734430987e-11 2.37984638674592e-11 
5.018003600720144 2.173427653992809e-10 -7.785831903681517e-11 -1.389495239666653e-10 9.751107749324809e-11 6.532780732459375e-11 -7.562906900366525e-11 -1.687218203064246e-11 3.672475954077504e-11 
5.024004800960192 3.020797317642041e-10 -1.081601055072472e-10 -1.930496610172947e-10 1.353771738765422e-10 9.071710865086857e-11 -1.049114256988953e-10 -2.342784580468397e-11 5.090581328767481e-11 
5.03000600120024 3.977266126316003e-10 -1.423205747308204e-10 -2.540573604254235e-10 1.779983270626594e-10 1.193118446156062e-10 -1.378027674403797e-10 -3.08100717465607e-11 6.680486799760123e-11 
5.036007201440288 5.075504326298425e-10 -1.814921558125226e-10 -3.240374094843294e-10 2.267903828810384e-10 1.520680289248938e-10 -1.753736254825292e-10 -3.926542936515906e-11 8.493002558934135e-11 
5.042008401680336 6.352296853256024e-10 -2.269703496880912e-10 -4.05311974499746e-10 2.833418870675635e-10 1.90059212052129e-10 -2.1882205896496e-10 -4.907076786260766e-11 1.058486253360032e-10 
5.048009601920384 7.84964322558294e-10 -2.802318367089345e-10 -5.005292039792156e-10 3.494598635002583e-10 2.345076804230615e-10 -2.695072268169486e-10 -6.054124082551581e-11 1.302027252448484e-10 
5.054010802160432 9.615973650347759e-10 -3.429765237557661e-10 -6.1273897841881e-10 4.272202084996769e-10 2.8681884799844e-10 -3.289862375595576e-10 -7.40391528996216e-11 1.587260567692507e-10 
5.06001200240048 1.170751285046855e-09 -4.171745965752674e-10 -7.45477737686829e-10 5.190239428189743e-10 3.48619696900391e-10 -3.990551486290603e-10 -8.998384741807949e-11 1.9226283661635e-10 
5.066013202640528 1.418982517526017e-09 -5.051197092064058e-10 -9.028644395742465e-10 6.276606363300121e-10 4.218021765690041e-10 -4.817950355424074e-10 -1.088628676284438e-10 2.317888406193087e-10 
5.072014402880576 1.713957739679593e-09 -6.094895343093097e-10 -1.089709872722035e-09 7.563804225552708e-10 5.085725438972319e-10 -5.796241187725095e-10 -1.312446429063149e-10 2.784351733654922e-10 
5.078015603120624 2.06465592137806e-09 -7.334150155566955e-10 -1.311641763287501e-09 9.089761505827845e-10 6.115077196137299e-10 -6.953570222168137e-10 -1.577929750977054e-10 3.335152034301014e-10 
5.084016803360672 2.481600589521089e-09 -8.805598062606542e-10 -1.575248377988282e-09 1.089877380687546e-09 7.336198490761578e-10 -8.322723416394458e-10 -1.892836289567352e-10 3.985551776900119e-10 
5.09001800360072 2.977127272795783e-09 -1.055211547903659e-09 -1.888243638195146e-09 1.304258117903098e-09 8.784303892246667e-10 -9.941898247977029e-10 -2.266233647005614e-10 4.753290794195238e-10 
5.096019203840768 3.565691703122409e-09 -1.262386839528698e-09 -2.259657123071687e-09 1.558160396087192e-09 1.050055198715757e-09 -1.185558607778068e-09 -2.708717902394508e-10 5.658983539272809e-10 
5.102020404080816 4.264225052669027e-09 -1.507951975769444e-09 -2.7000527577459e-09 1.858636075408617e-09 1.25330228653096e-09 -1.411558115279423e-09 -3.232664559878245e-10 6.726571926959824e-10 
5.108021604320864 5.092543287969663e-09 -1.798761789828013e-09 -3.221780459281998e-09 2.213909500769958e-09 1.493784077260622e-09 -1.67821341734279e-09 -3.852516667283087e-10 7.983841427250356e-10 
5.114022804560912 6.073818634065201e-09 -2.142819230484366e-09 -3.839265553673558e-09 2.633563989983016e-09 1.778046280718423e-09 -1.992527042704483e-09 -4.585115432624182e-10 9.463008925117757e-10 
5.12002400480096 7.235122171643191e-09 -2.549458632171488e-09 -4.569341386788271e-09 3.12875548140809e-09 2.113715711743072e-09 -2.36262948110755e-09 -5.450079320833434e-10 1.120139180362518e-09 
5.126025205041008 8.608047750095759e-09 -3.029556007565037e-09 -5.431631237454272e-09 3.712457074485925e-09 2.509669695458166e-09 -2.797950865293728e-09 -6.470238346589697e-10 1.324216875079587e-09 
5.132026405281056 1.022942870174366e-08 -3.595770106669891e-09 -6.448986408688024e-09 4.399738646705115e-09 2.976230016624444e-09 -3.309416609934251e-09 -7.672131097918861e-10 1.563524394153285e-09 
5.138027605521104 1.214216030100127e-08 -4.262818449058536e-09 -7.64798823113835e-09 5.208086230966616e-09 3.525384732033224e-09 -3.909670101524153e-09 -9.086572936665658e-10 1.843822751070561e-09 
5.144028805761153 1.439614254214195e-08 -5.0477930511151e-09 -9.059522669601011e-09 6.15776639226873e-09 4.171041565424583e-09 -4.613325882492432e-09 -1.074930483404463e-09 2.171754661944375e-09 
5.150030006001201 1.704935962711912e-08 -5.970521142624052e-09 -1.071943728812587e-08 7.272241456705161e-09 4.929317048707041e-09 -5.437257156842195e-09 -1.270173342091277e-09 2.554970293109816e-09 
5.156031206241249 2.016911457859899e-08 -7.053976801953216e-09 -1.266929151173912e-08 8.57864212383177e-09 5.81886606511597e-09 -6.400921866034447e-09 -1.499177407245725e-09 3.002269396389972e-09 
5.162032406481297 2.383343964245837e-08 -8.324750141940674e-09 -1.495721243386158e-08 1.010830474071899e-08 6.861256993457988e-09 -7.5267320451897e-09 -1.767481021558141e-09 3.52376175818823e-09 
5.168033606721345 2.813270563953323e-08 -9.813581455318119e-09 -1.763886986964791e-08 1.189738133798449e-08 8.081398252105707e-09 -8.840471673735601e-09 -2.081478355494533e-09 4.131048083206683e-09 
5.174034806961393 3.317145619101932e-08 -1.155596858539959e-08 -2.077858595904958e-08 1.398753143061831e-08 9.50802270156492e-09 -1.037176878420244e-08 -2.448543157154498e-09 4.837423644215518e-09 
5.180036007201441 3.907049579993124e-08 -1.35928567315434e-08 -2.445059639260223e-08 1.642670557559124e-08 1.117423709014503e-08 -1.2154628190869e-08 -2.87716904676761e-09 5.658107256692034e-09 
5.186037207441489 4.596926414844282e-08 -1.597142093666586e-08 -2.874048228179937e-08 1.927003176048352e-08 1.311814452370839e-08 -1.422803184935711e-08 -3.377128372650278e-09 6.610498382078266e-09 
5.192038407681537 5.402853269554256e-08 -1.874595264335949e-08 -3.374679383934573e-08 2.258081687936184e-08 1.53835488131104e-08 -1.663661456207764e-08 -3.959651863618952e-09 7.714465426613067e-09 
5.198039607921585 6.343346376082893e-08 -2.19788629538512e-08 -3.958288938836912e-08 2.643167684079518e-08 1.802075050749336e-08 -1.943142350567409e-08 -4.637631551116285e-09 8.992668584877127e-09 
5.204040808161633 7.439707678987512e-08 -2.574181659542562e-08 -4.637901580046877e-08 3.090581025539253e-08 2.10874454640413e-08 -2.267077087832235e-08 -5.425849694055869e-09 1.047092087899394e-08 
5.210042008401681 8.716417144770642e-08 -3.011701208570926e-08 -5.428465928782546e-08 3.609843217392056e-08 2.464973794136516e-08 -2.642118984992094e-08 -6.341236722076978e-09 1.217859136643404e-08 
5.216043208641729 1.020157626147453e-07 -3.519862522040092e-08 -6.347119856289505e-08 4.211838599944317e-08 2.878328144082617e-08 -3.075850494977226e-08 -7.403161520013492e-09 1.414905483206941e-08 
5.222044408881777 1.192740883011687e-07 -4.109443477902515e-08 -7.413489574969173e-08 4.908995348566166e-08 3.357456186448675e-08 -3.576902904714843e-08 -8.633757709446143e-09 1.642019264391544e-08 
5.228045609121824 1.393082579899642e-07 -4.792765127177313e-08 -8.65002641034128e-08 5.715488466645955e-08 3.912233901686376e-08 -4.155090017283826e-08 -1.005828994377724e-08 1.903494983715768e-08 
5.234046809361872 1.625406160068808e-07 -5.583897164246578e-08 -1.008238555909993e-07 6.647467164632319e-08 4.553926405727311e-08 -4.821557259690048e-08 -1.170556462291353e-08 2.204195389773195e-08 
5.24004800960192 1.894539022396362e-07 -6.498888510934499e-08 -1.17398515725757e-07 7.723309242554989e-08 5.295369221744594e-08 -5.588947782167972e-08 -1.360838985394631e-08 2.549620114489619e-08 
5.246049209841968 2.20599300933556e-07 -7.55602577772091e-08 -1.365581577566309e-07 8.963905334559359e-08 6.151171194252176e-08 -6.4715872471674e-08 -1.580408993675519e-08 2.945981706170779e-08 
5.252050410082016 2.56605477422419e-07 -8.776122630191158e-08 -1.586831134099835e-07 1.039297613259915e-07 7.13794135997744e-08 -7.485689146475118e-08 -1.833508013979423e-08 3.400289739271419e-08 
5.258051610322064 2.981887125593529e-07 -1.018284337421049e-07 -1.84206122892171e-07 1.20374259832254e-07 8.27454230358135e-08 -8.649582633375629e-08 -2.124950805297661e-08 3.920443731885849e-08 
5.264052810562112 3.461642553423214e-07 -1.180306438039794e-07 -2.136190328085871e-07 1.392773654707284e-07 9.582372755677475e-08 -9.983965013455587e-08 -2.460196836303942e-08 4.515335652974372e-08 
5.27005401080216 4.014590258325039e-07 -1.366727729832224e-07 -2.474802770632771e-07 1.609840452581555e-07 1.108568243643064e-07 -1.151218120263237e-07 -2.845429849346147e-08 5.194962854185241e-08 
5.276055211042208 4.651258129932797e-07 -1.581003836449116e-07 -2.864232226969181e-07 1.858842779662413e-07 1.28119224109936e-07 -1.326053263420704e-07 -3.287646318725647e-08 5.970552315666051e-08 
5.282056411282256 5.383591255850361e-07 -1.827046848667401e-07 -3.311654700241745e-07 2.144184465001975e-07 1.479213450383659e-07 -1.525861827810936e-07 -3.794753678799727e-08 6.85469715130667e-08 
5.288057611522304 6.225128687897043e-07 -2.109280919135953e-07 -3.825192043682415e-07 2.470833120391938e-07 1.706138361827544e-07 -1.753971062484577e-07 -4.375679269333941e-08 7.861506376208873e-08 
5.294058811762352 7.191200348622993e-07 -2.432703995213809e-07 -4.414027051845202e-07 2.844386246493463e-07 1.96592371258035e-07 -2.01411696837244e-07 -5.040491021704195e-08 9.006768997588885e-08 
5.3000600120024 8.299146128682192e-07 -2.802956287536807e-07 -5.088531274399046e-07 3.271144292784993e-07 2.263029582772197e-07 -2.310489824936901e-07 -5.800530990079041e-08 1.030813354950167e-07 
5.306061212242448 9.568559405178399e-07 -3.226396120642747e-07 -5.860406797915156e-07 3.758191304576137e-07 2.602478134952003e-07 -2.647784190190174e-07 -6.668562916654801e-08 1.178530425140277e-07 
5.312062412482496 1.102155740306407e-06 -3.710183863584837e-07 -6.742843344100699e-07 4.313483836656064e-07 2.989918520688452e-07 -3.031253742391465e-07 -7.658935109400568e-08 1.346025503025995e-07 
5.318063612722544 1.268308102658551e-06 -4.262374693026209e-07 -7.750692142383735e-07 4.945948861608764e-07 3.431698518143615e-07 -3.466771354079679e-07 -8.787760004598652e-08 1.535746270527643e-07 
5.324064812962592 1.458122700612487e-06 -4.892020998878531e-07 -8.900658150829424e-07 5.665591451396815e-07 3.934943506451447e-07 -3.960894811933441e-07 -1.007311188471074e-07 1.75041606928193e-07 
5.33006601320264 1.674761543806309e-06 -5.609285303155173e-07 -1.021151232222688e-06 6.483613063430611e-07 4.50764342686737e-07 -4.520938619182547e-07 -1.153524432469686e-07 1.993061464634582e-07 
5.336067213442688 1.921779604192201e-06 -6.425564626364653e-07 -1.170432574197026e-06 7.412541316921082e-07 5.158748426898329e-07 -5.155052340817367e-07 -1.319682904676317e-07 2.267042150141344e-07 
5.342068413682736 2.20316967204485e-06 -7.353627302466683e-07 -1.340272760117742e-06 8.466372201755639e-07 5.898273931959356e-07 -5.872305975532001e-07 -1.508321797447e-07 2.576083344862853e-07 
5.348069613922784 2.523411828484559e-06 -8.407763313120678e-07 -1.533318911242871e-06 9.66072572030911e-07 6.737415939500714e-07 -6.682782862054543e-07 -1.722273039200604e-07 2.924310840695111e-07 
5.354070814162832 2.887527949935496e-06 -9.603949284621346e-07 -1.752533562661026e-06 1.101301602234405e-06 7.688677382960009e-07 -7.597680651108112e-07 -1.964696723298537e-07 3.316288861540524e-07 
5.36007201440288 3.301141690711396e-06 -1.096002936645685e-06 -2.001228936762045e-06 1.254263715427853e-06 8.766006467248847e-07 -8.629420897536715e-07 -2.239115464506011e-07 3.757060900215466e-07 
5.366073214642928 3.770544422284396e-06 -1.249591328873158e-06 -2.283104536710577e-06 1.427116560638311e-06 9.984947933694604e-07 -9.791767849929144e-07 -2.549451910160687e-07 4.252193702525915e-07 
5.372074414882976 4.302767641760098e-06 -1.423379297662446e-06 -2.602288335384771e-06 1.622258090465363e-06 1.136280827031489e-06 -1.109995703717246e-06 -2.900069645932906e-07 4.807824570833208e-07 
5.378075615123024 4.905662397657106e-06 -1.619837918342688e-06 -2.963381853178594e-06 1.842350555790085e-06 1.291883594287014e-06 -1.257083427253588e-06 -3.295817749033327e-07 5.430712161583668e-07 
5.384076815363072 5.587986318267115e-06 -1.84171596893051e-06 -3.371509436673456e-06 2.090346573466758e-06 1.467441778315846e-06 -1.422300571587774e-06 -3.742079254853925e-07 6.128290952589402e-07 
5.39007801560312 6.359498866636393e-06 -2.092068070050344e-06 -3.832372069436877e-06 2.369517410855653e-06 1.665329273329993e-06 -1.607699965311486e-06 -4.244823816254104e-07 6.908729556219324e-07 
5.396079215843169 7.231065486534395e-06 -2.374285317294471e-06 -4.352306066069261e-06 2.683483637401115e-06 1.888178420808755e-06 -1.815544066890937e-06 -4.810664847954655e-07 7.780993053982132e-07 
5.402080416083217 8.214771345620902e-06 -2.692128587474473e-06 -4.938347021054153e-06 3.036248299707587e-06 2.138905240161247e-06 -2.048323690330311e-06 -5.446921461700328e-07 8.754909526144071e-07 
5.408081616323265 9.324045425336834e-06 -3.049764709364154e-06 -5.598299404923975e-06 3.432232782666672e-06 2.420736792902412e-06 -2.30877810954415e-06 -6.161685510909638e-07 9.841240946910374e-07 
5.414082816563313 1.057379575175811e-05 -3.451805698729394e-06 -6.340812221674932e-06 3.876315525085178e-06 2.737240825914733e-06 -2.59991661272316e-06 -6.963894076352729e-07 1.105175861119158e-06 
5.420084016803361 1.198055660768383e-05 -3.903351266632412e-06 -7.175461163185501e-06 4.373873763897294e-06 3.092357845840186e-06 -2.925041578640682e-06 -7.863407736879886e-07 1.23993232529563e-06 
5.426085217043409 1.356264861347942e-05 -4.410034819129996e-06 -8.112837718537191e-06 4.930828486348383e-06 3.490435783067344e-06 -3.287773147165012e-06 -8.871094981251378e-07 1.389797000751985e-06 
5.432086417283457 1.534035261254397e-05 -4.978073175494942e-06 -9.164645718518022e-06 5.553692774443083e-06 3.936267410104352e-06 -3.692075556175476e-06 -9.998923128570356e-07 1.556299836071223e-06 
5.438087617523505 1.733609834658263e-05 -5.614320240908262e-06 -1.034380581811226e-05 6.249623730381292e-06 4.43513068531446e-06 -4.142285216587189e-06 -1.126005613556242e-06 1.741106721659e-06 
5.444088817763553 1.957466895598086e-05 -6.326324878121656e-06 -1.166456844233776e-05 7.026478175582202e-06 4.992832198986783e-06 -4.643140596228117e-06 -1.266895967883681e-06 1.946029520208683e-06 
5.450090018003601 2.208342239132002e-05 -7.122393230793057e-06 -1.314263574326557e-05 7.892872319133228e-06 5.615753904467273e-06 -5.199813981838644e-06 -1.424151390915383e-06 2.173036631162001e-06 
5.456091218243649 2.489253087324131e-05 -8.011655758963884e-06 -1.479529313831529e-05 8.858245594007791e-06 6.3109033225258e-06 -5.817945186434569e-06 -1.599513428245124e-06 2.424264097707619e-06 
5.462092418483697 2.803523958923382e-05 -9.004139254379143e-06 -1.664155102182186e-05 9.93292886107851e-06 7.085967412223574e-06 -6.503677266643457e-06 -1.794890087878004e-06 2.70202726286807e-06 
5.468093618723745 3.154814586724311e-05 -1.011084410994799e-05 -1.870229726326053e-05 1.1128217181711e-05 7.94937030620411e-06 -7.263694311346784e-06 -2.012369662519026e-06 3.008832978991508e-06 
5.474094818963793 3.547150011699511e-05 -1.134382712349199e-05 -2.10004611262295e-05 1.245644735945471e-05 8.910335112492578e-06 -8.10526135899008e-06 -2.254235484180442e-06 3.347392372479183e-06 
5.480096019203841 3.984952988030786e-05 -1.271629012091547e-05 -2.356118926214282e-05 1.393108044994348e-05 9.978949988478247e-06 -9.036266496215855e-06 -2.522981653162563e-06 3.720634162834775e-06 
5.486097219443889 4.473078838109278e-05 -1.424267468793005e-05 -2.641203445139143e-05 1.556678943546789e-05 1.116623869569608e-05 -1.006526518498389e-05 -2.821329783385244e-06 4.131718532110273e-06 
5.492098419683937 5.016852901387546e-05 -1.593876330234663e-05 -2.958315778227616e-05 1.737955225667034e-05 1.248423584623644e-05 -1.120152685902731e-05 -3.152246805740308e-06 4.584051537539654e-06 
5.498099619923985 5.62211072561101e-05 -1.782178716056945e-05 -3.310754497409099e-05 1.938675038832383e-05 1.394606705301198e-05 -1.245508382330881e-05 -3.518963870577863e-06 5.081300056591639e-06 
5.504100820164033 6.295241153391791e-05 -1.9910540992149e-05 -3.702123756510377e-05 2.160727313906842e-05 1.556603419661149e-05 -1.383678248204751e-05 -3.924996389610222e-06 5.627407249833694e-06 
5.510102020404081 7.043232461270548e-05 -2.222550515491825e-05 -4.136357969860526e-05 2.406162784617221e-05 1.735970602098241e-05 -1.535833691184787e-05 -4.374165256393783e-06 6.226608522880472e-06 
5.516103220644129 7.873721712295174e-05 -2.478897530019644e-05 -4.617748125042003e-05 2.677205612573653e-05 1.934401426861495e-05 -1.703238478643864e-05 -4.87061928310999e-06 6.883447964301814e-06 
5.522104420884177 8.79504748668024e-05 -2.762519989263141e-05 -5.150969804902685e-05 2.976265632615461e-05 2.1537355563156e-05 -1.887254564849437e-05 -5.41885888958924e-06 7.602795231691597e-06 
5.528105621124225 9.816306158245336e-05 -3.076052586229962e-05 -5.74111299444544e-05 3.305951231793653e-05 2.395969924336828e-05 -2.089348151193314e-05 -6.023761078383587e-06 8.389862853154478e-06 
5.534106821364273 0.0001094741188700999 -3.422355265752037e-05 -6.393713748410415e-05 3.669082873611352e-05 2.66327013469675e-05 -2.311095976493896e-05 -6.690605727174624e-06 9.250223906260599e-06 
5.540108021604321 0.0001219916050049007 -3.804529495529178e-05 -7.114787795231798e-05 4.068707277221091e-05 2.957982493602516e-05 -2.554191832972898e-05 -7.425103226879902e-06 1.018983003105899e-05 
5.546109221844369 0.0001358329743783561 -4.225935427214159e-05 -7.910866152555284e-05 4.508112259112015e-05 3.282646694721734e-05 -2.820453301975698e-05 -8.233423490473723e-06 1.121502972804205e-05 
5.552110422084417 0.0001511258993191203 -4.690209970132745e-05 -8.789032828613219e-05 4.99084224239936e-05 3.640009174013439e-05 -3.111828701861278e-05 -9.122226353747078e-06 1.233258688603113e-05 
5.558111622324465 0.0001680090360469025 -5.201285798253538e-05 -9.75696468244109e-05 5.5207144361432e-05 4.033037150504668e-05 -3.430404238733828e-05 -1.009869338497728e-05 1.354969947882619e-05 
5.564112822564513 0.0001866328365081118 -5.763411308733032e-05 -0.0001082297351414882 6.101835684162855e-05 4.464933367785694e-05 -3.77841134882443e-05 -1.117056111574323e-05 1.487401836315322e-05 
5.570114022804561 0.0002071604078285882 -6.381171547742835e-05 -0.0001199605045420219 6.738619979569997e-05 4.939151549436454e-05 -4.158234219358871e-05 -1.234615569989058e-05 1.631366610397359e-05 
5.576115223044609 0.0002297684210964316 -7.059510116321037e-05 -0.0001328591271789072 7.435806637707817e-05 5.459412579834139e-05 -4.572417472669365e-05 -1.363442900190909e-05 1.78772557466215e-05 
5.582116423284657 0.0002546480711559117 -7.80375206566e-05 -0.0001470305278782714 8.198479116350376e-05 6.029721419818351e-05 -5.023673996126536e-05 -1.504499610971812e-05 1.957390944853718e-05 
5.588117623524705 0.0002820060890509727 -8.619627787531979e-05 -0.0001625879008340904 9.032084467878429e-05 6.654384764498444e-05 -5.514892898187598e-05 -1.658817426005731e-05 2.141327687660027e-05 
5.594118823764753 0.000312065808703249 -9.51329790144593e-05 -0.0001796532517164309 9.942453403702386e-05 7.338029448070385e-05 -6.049147568482425e-05 -1.827502315733775e-05 2.34055532692761e-05 
5.600120024004801 0.0003450682893440272 -0.0001049137913560659 -0.0001983579656855801 0.0001093582094644637 8.085621597861328e-05 -6.629703817397257e-05 -2.011738665892232e-05 2.556149705600952e-05 
