# Energy: -86.44860197362482
# J: 1
# M: -1
# Lmin: 1
# Lmax: 9
# grid size: 5000
# h: 0.006001200240048009
5 0 0 0 0 0 0 0 0 
5.006001200240048 1.400657698948371e-11 -5.024840223288379e-12 -8.951422422163674e-12 6.292611313974813e-12 4.205096006714456e-12 -4.879987145413168e-12 -1.083528700751696e-12 2.369307724081917e-12 
5.012002400480096 2.855166365539941e-11 -1.024055607788853e-11 -1.82436412863424e-11 1.282041615676079e-11 8.568139168232422e-12 -9.938419629631432e-12 -2.207643492819994e-12 4.823481509633778e-12 
5.018003600720144 4.418143771329395e-11 -1.584070708070132e-11 -2.822229510868198e-11 1.982190061580573e-11 1.324933393759197e-11 -1.535625951290781e-11 -3.413524746834639e-12 7.448630030303918e-12 
5.024004800960192 6.146861884952655e-11 -2.202811815293629e-11 -3.924965155055523e-11 2.754677479359013e-11 1.84165034229044e-11 -2.132281896660153e-11 -4.7443179719901e-12 1.033479070867404e-11 
5.03000600120024 8.103246449507905e-11 -2.902185076689895e-11 -5.171709309814012e-11 3.626437157606408e-11 2.425076760318115e-11 -2.8041935817537e-11 -6.246585633303796e-12 1.357877442312766e-11 
5.036007201440288 1.035594048865519e-10 -3.706439143118311e-11 -6.605799796969776e-11 4.627230269847357e-11 3.095240105672327e-11 -3.573833768306833e-11 -7.971806134393514e-12 1.728710170332613e-11 
5.042008401680336 1.298249920936261e-10 -4.642928761628418e-11 -8.276142987250034e-11 5.790564077840029e-11 3.874705317709876e-11 -4.466438310282893e-11 -9.977966267098686e-12 2.157911210442608e-11 
5.048009601920384 1.607178294552886e-10 -5.742945827217611e-11 -1.023870452617385e-10 7.154689262869077e-11 4.789251189440286e-11 -5.510736614514783e-11 -1.23312930239625e-11 2.6590328340716e-11 
5.054010802160432 1.972661616092652e-10 -7.042641041637638e-11 -1.255816349164453e-10 8.763703392675676e-11 5.868619552606551e-11 -6.739757430835967e-11 -1.510817164872311e-11 3.247615861478477e-11 
5.06001200240048 2.406678391377626e-10 -8.584060425215646e-11 -1.530977368321505e-10 1.066878875220704e-10 7.147356610310354e-11 -8.19172977443462e-11 -1.839729905410102e-11 3.941602431165103e-11 
5.066013202640528 2.923244246899525e-10 -1.04163226538649e-10 -1.858147889792743e-10 1.29296146893008e-10 8.665767108476672e-11 -9.911100064804906e-11 -2.230212520034202e-11 4.761800578320591e-11 
5.072014402880576 3.538802788311548e-10 -1.259696553124131e-10 -2.247633331098163e-10 1.561593723188711e-10 1.047100386678312e-10 -1.194968829537277e-10 -2.69436396742229e-11 5.732410630306808e-11 
5.078015603120624 4.272675539161251e-10 -1.519349285646404e-10 -2.711528345524532e-10 1.880943202003944e-10 1.261831749257606e-10 -1.436800822367773e-10 -3.24635665400597e-11 6.881624343196286e-11 
5.084016803360672 5.147581335753454e-10 -1.828515652736026e-10 -3.26403748135687e-10 2.260580057911284e-10 1.517249388991604e-10 -1.723677920143379e-10 -3.902803758253115e-11 8.242308803396423e-11 
5.09001800360072 6.190236849539916e-10 -2.196501295781079e-10 -3.921845375862321e-10 2.711719466843628e-10 1.820951047239327e-10 -2.063866036282712e-10 -4.683182238103551e-11 9.852788408600848e-11 
5.096019203840768 7.432051420632196e-10 -2.634229782786741e-10 -4.704544457585336e-10 3.247500891568484e-10 2.181844582401778e-10 -2.46702414815834e-10 -5.610320332421141e-11 1.175773973135251e-10 
5.102020404080816 8.909931132755233e-10 -3.154516888090489e-10 -5.635129168679418e-10 3.883309824425221e-10 2.610368196713997e-10 -2.944432892316183e-10 -6.710959478923306e-11 1.400921576736248e-10 
5.108021604320864 1.06672090626514e-09 -3.772387299833926e-10 -6.740566907370936e-10 4.637148378515959e-10 3.118744343798093e-10 -3.509256979492473e-10 -8.016401839133199e-11 1.666781799256666e-10 
5.114022804560912 1.275472092064937e-09 -4.505440119550595e-10 -8.052457243377333e-10 5.530061911275646e-10 3.721272309489492e-10 -4.176846267747225e-10 -9.56325605916704e-11 1.980403681294064e-10 
5.12002400480096 1.52320478925044e-09 -5.374270357920253e-10 -9.607792492371608e-10 6.586629784200072e-10 4.434665105580126e-10 -4.965080925365278e-10 -1.139429551921271e-10 2.349978340650026e-10 
5.126025205041008 1.81689514281023e-09 -6.402954578631458e-10 -1.144983446765619e-09 7.83552939725764e-10 5.278437045112641e-10 -5.894766779296372e-10 -1.355944515186766e-10 2.785013864671424e-10 
5.132026405281056 2.164702803647827e-09 -7.619609909340016e-10 -1.362912417847536e-09 9.310183797054603e-10 6.275349186701091e-10 -6.990087685874997e-10 -1.611691495950077e-10 3.296534778153745e-10 
5.138027605521104 2.57616158791758e-09 -9.057036837045498e-10 -1.62046434374705e-09 1.104950445618166e-09 7.451920752871154e-10 -8.279122585001633e-10 -1.91345006548612e-10 3.897309284491e-10 
5.144028805761153 3.062398914987694e-09 -1.075345754819432e-09 -1.924514979959834e-09 1.309874227049743e-09 8.839015653292126e-10 -9.794435814063918e-10 -2.269107441066979e-10 4.602107842194594e-10 
5.150030006001201 3.636388093661659e-09 -1.275336307610584e-09 -2.283070900876088e-09 1.551046143573181e-09 1.047251438859152e-09 -1.157375027137209e-09 -2.687829155835646e-10 5.427997040075657e-10 
5.156031206241249 4.313238053769264e-09 -1.510848419590529e-09 -2.705445220636803e-09 1.834565266025773e-09 1.239408288570617e-09 -1.366071413907963e-09 -3.180254225105223e-10 6.39467317499634e-10 
5.162032406481297 5.110525710263611e-09 -1.78789028774477e-09 -3.202458859070613e-09 2.167500416397309e-09 1.465205123390148e-09 -1.610577311131514e-09 -3.758718063120839e-10 7.524840418983449e-10 
5.168033606721345 6.048676805975731e-09 -2.11343231886311e-09 -3.786670804279495e-09 2.558035112202906e-09 1.730241686515611e-09 -1.89671614339765e-09 -4.437506795086734e-10 8.844638990623536e-10 
5.174034806961393 7.151401814202283e-09 -2.495552285548627e-09 -4.472641249186146e-09 3.015632665604159e-09 2.040998846808046e-09 -2.231202655829137e-09 -5.233147041706183e-10 1.038412932209269e-09 
5.180036007201441 8.446194300961722e-09 -2.943600925358534e-09 -5.277231952326505e-09 3.551224017519393e-09 2.404968885650969e-09 -2.621770385132497e-09 -6.16473573128611e-10 1.217783884108361e-09 
5.186037207441489 9.964900057322508e-09 -3.468390645143944e-09 -6.219948697861294e-09 4.177421184744186e-09 2.830803714910324e-09 -3.077315960413546e-09 -7.254315021546544e-10 1.42653786695208e-09 
5.192038407681537 1.174436632363759e-08 -4.082410307624092e-09 -7.323331311031408e-09 4.908759526045882e-09 3.328483297256387e-09 -3.608062254376428e-09 -8.527297993819758e-10 1.669213828160546e-09 
5.198039607921585 1.382718154948423e-08 -4.800069425298741e-09 -8.613397328295276e-09 5.761972393804129e-09 3.909506799751232e-09 -4.225742620070692e-09 -1.001295142075021e-09 1.951006696574463e-09 
5.204040808161633 1.626251737603841e-08 -5.637975470907419e-09 -1.012014613174354e-08 6.756302133693368e-09 4.587109297289518e-09 -4.94380868213916e-09 -1.174494260959182e-09 2.277855180164429e-09 
5.210042008401681 1.910708590273193e-08 -6.615248436920694e-09 -1.187813114105956e-08 7.913851828939812e-09 5.376507156356424e-09 -5.777664405835989e-09 -1.376195809167435e-09 2.656540279861738e-09 
5.216043208641729 2.242622681940687e-08 -7.753877242338451e-09 -1.39271085196643e-08 9.259982660779169e-09 6.295175573911164e-09 -6.744929443251691e-09 -1.610840276975742e-09 3.094795684725552e-09 
5.222044408881777 2.629514066172313e-08 -9.079123096922578e-09 -1.631277180155038e-08 1.082376227597994e-08 7.363162123420082e-09 -7.865735055553063e-09 -1.883518905423651e-09 3.601431321723651e-09 
5.228045609121824 3.080028629512652e-08 -1.061997549467394e-08 -1.908758288890363e-08 1.263847011891389e-08 8.603440572679267e-09 -9.163056233996702e-09 -2.20006265221764e-09 4.18647144922568e-09 
5.234046809361872 3.604096276602162e-08 -1.240966712385834e-08 -2.231171101560747e-08 1.474216630301865e-08 1.004230968873834e-08 -1.066308399239906e-08 -2.567142372581836e-09 4.861308807178945e-09 
5.24004800960192 4.213109789366763e-08 -1.448625465439965e-08 -2.605409252624781e-08 1.717833126811071e-08 1.170984223674385e-08 -1.239564218104179e-08 -2.992381496565159e-09 5.638876469125593e-09 
5.246049209841968 4.920126842948386e-08 -1.689327309941577e-08 -3.039362569287051e-08 1.999658419949621e-08 1.364038991476344e-08 -1.439465357805738e-08 -3.484482613365999e-09 6.533839181967258e-09 
5.252050410082016 5.740097929970377e-08 -1.968047225072348e-08 -3.542051629153035e-08 2.325348897593455e-08 1.587315054864901e-08 -1.669866045055784e-08 -4.053369513144583e-09 7.562806128897408e-09 
5.258051610322064 6.690123239150148e-08 -2.29046445631486e-08 -4.123779129712165e-08 2.701345727008003e-08 1.845280450287659e-08 -1.935140524549458e-08 -4.71034638822253e-09 8.744567209371873e-09 
5.264052810562112 7.789741856176189e-08 -2.663055481453116e-08 -4.796299983806281e-08 3.134975935099456e-08 2.143022794829805e-08 -2.240247757078528e-08 -5.468276059195234e-09 1.010035509749807e-08 
5.27005401080216 9.061257006259491e-08 -3.093198290270377e-08 -5.573012249254827e-08 3.634565413769402e-08 2.486329136918154e-08 -2.590803416187109e-08 -6.341779267990544e-09 1.16541355168647e-08 
5.276055211042208 1.053010144106407e-07 -3.58928922629401e-08 -6.469171211615389e-08 4.209565112952359e-08 2.881775249321833e-08 -2.99315990987584e-08 -7.347457269986208e-09 1.343292835561777e-08 
5.282056411282256 1.222524749014026e-07 -4.160873760509916e-08 -7.502129167789508e-08 4.870691799754136e-08 3.336825369281919e-08 -3.454495214484529e-08 -8.504140161639565e-09 1.546716244045908e-08 
5.288057611522304 1.417966675096374e-07 -4.818792698479783e-08 -8.691603706011676e-08 5.630084886511942e-08 3.859943483755278e-08 -3.98291137224133e-08 -9.833163599370192e-09 1.779106699206849e-08 
5.294058811762352 1.643084488476675e-07 -5.575345464344143e-08 -1.005997754589524e-07 6.501480963972154e-08 4.460717357957545e-08 -4.587543572142361e-08 -1.135867680034501e-08 2.044310299701462e-08 
5.3000600120024 1.902135752018698e-07 -6.444472258399992e-08 -1.163263329190218e-07 7.500407818530172e-08 5.149996612996863e-08 -5.278680805888232e-08 -1.310798496700294e-08 2.346643795221195e-08 
5.306061212242448 2.199951384611396e-07 -7.441957049930908e-08 -1.343832676613385e-07 8.644399864991779e-08 5.940046273763094e-08 -6.067899166603466e-08 -1.511192954525603e-08 2.690946766699328e-08 
5.312062412482496 2.542007510183907e-07 -8.585653544377517e-08 -1.550960292301909e-07 9.953237088976465e-08 6.844717331734969e-08 -6.968208938031276e-08 -1.740531001191822e-08 3.082638904437537e-08 
5.318063612722544 2.934505584966958e-07 -9.895736454410125e-08 -1.788325871063776e-07 1.144920976625358e-07 7.879635999340636e-08 -7.994216705835415e-08 -2.002735119060185e-08 3.527782800645796e-08 
5.324064812962592 3.384461664559718e-07 -1.139498060864819e-07 -2.060085763241537e-07 1.315741141032214e-07 9.062413473300286e-08 -9.162303810532458e-08 -2.302222041759876e-08 4.033152697834229e-08 
5.33006601320264 3.899805751054212e-07 -1.310907065030852e-07 -2.370930118012334e-07 1.510606259473008e-07 1.041287817432302e-07 -1.04908225533722e-07 -2.643959922057897e-08 4.606309659957445e-08 
5.336067213442688 4.489492245133294e-07 -1.506694431159329e-07 -2.726146275589117e-07 1.732686850325967e-07 1.195333258994114e-07 -1.200031166209808e-07 -3.033531453367736e-08 5.255683659085291e-08 
5.342068413682736 5.163622619019292e-07 -1.730117249877907e-07 -3.131689017864848e-07 1.985541327942741e-07 1.370883701644044e-07 -1.371373262283532e-07 -3.477203485300098e-08 5.990663096537423e-08 
5.348069613922784 5.933581523740859e-07 -1.984837968835158e-07 -3.594258338042641e-07 2.273159447696029e-07 1.570752267505779e-07 -1.565672858721408e-07 -3.982003713698018e-08 6.821692303734969e-08 
5.354070814162832 6.812187648741271e-07 -2.274970841673816e-07 -4.121385444158922e-07 2.600010115516316e-07 1.798093686711198e-07 -1.785790767003881e-07 -4.555805067641045e-08 7.760377594335289e-08 
5.36007201440288 7.813860763710149e-07 -2.605133194578477e-07 -4.72152776926509e-07 2.971093941747885e-07 2.056442303272463e-07 -2.03491525621163e-07 -5.207418459946782e-08 8.819602465352574e-08 
5.366073214642928 8.954806492022173e-07 -2.980501950363511e-07 -5.404173822511223e-07 3.392000945808839e-07 2.349753878844541e-07 -2.316595849495915e-07 -5.946694613727868e-08 1.001365257073604e-07 
5.372074414882976 1.02532204926475e-06 -3.406875883658354e-07 -6.179958780593797e-07 3.868973846006138e-07 2.682451524055453e-07 -2.634780170863977e-07 -6.784635725548348e-08 1.135835111606756e-07 
5.378075615123024 1.17295138631944e-06 -3.89074411622258e-07 -7.060791788101765e-07 4.408977397921765e-07 3.059476110315167e-07 -2.993854069067933e-07 -7.733517775618703e-08 1.287120534742104e-07 
5.384076815363072 1.340656172118397e-06 -4.439361398820472e-07 -8.059996008327414e-07 5.019774275029048e-07 3.486341539338301e-07 -3.398685257205269e-07 -8.807024347209747e-08 1.457156483074664e-07 
5.39007801560312 1.530997707406058e-06 -5.060830765434958e-07 -9.192462543193988e-07 5.710008016587825e-07 3.969195273026958e-07 -3.854670718564685e-07 -1.002039287096799e-07 1.648079224013231e-07 
5.396079215843169 1.746841225111948e-06 -5.764194186927745e-07 -1.047481942217625e-06 6.489293600361754e-07 4.514884552847354e-07 -4.367788141224014e-07 -1.13905742649742e-07 1.862244739366309e-07 
5.402080416083217 1.991389034278319e-06 -6.559531894571e-07 -1.192561694552253e-06 7.368316231247899e-07 5.1310287653799e-07 -4.944651655860692e-07 -1.293640699807458e-07 2.102248529403287e-07 
5.408081616323265 2.268216927475804e-06 -7.458071089191131e-07 -1.356553075678219e-06 8.358938971442747e-07 5.826098439300443e-07 -5.59257216309735e-07 -1.467880666207934e-07 2.370946894723409e-07 
5.414082816563313 2.581314133681481e-06 -8.472304798972595e-07 -1.5417584113639e-06 9.474319873211169e-07 6.609501388625547e-07 -6.319622548394834e-07 -1.664097219768667e-07 2.671479774620639e-07 
5.420084016803361 2.935127118849645e-06 -9.616121698250309e-07 -1.750739092436817e-06 1.072903931158311e-06 7.491676547582519e-07 -7.13470809393493e-07 -1.88486099792474e-07 3.007295221689875e-07 
5.426085217043409 3.33460755771713e-06 -1.09049477508449e-06 -1.98634212198678e-06 1.213923825127041e-06 8.48419607388976e-07 -8.047642408009475e-07 -2.133017702449959e-07 3.38217559314016e-07 
5.432086417283457 3.785264822770096e-06 -1.235590059462006e-06 -2.251729083814215e-06 1.3722768219648e-06 9.599876329489098e-07 -9.069229203048601e-07 -2.411714465691079e-07 3.800265539623682e-07 
5.438087617523505 4.293223359771924e-06 -1.398795763890598e-06 -2.550407720927822e-06 1.549935379564285e-06 1.085289838078154e-06 -1.021135026346728e-06 -2.72442840099663e-07 4.266101872313103e-07 
5.444088817763553 4.86528534382261e-06 -1.582213890316148e-06 -2.886266324428357e-06 1.749076846265956e-06 1.225893869408985e-06 -1.148705995386787e-06 -3.074997482430724e-07 4.784645388421704e-07 
5.450090018003601 5.50899903559452e-06 -1.788170568364608e-06 -3.263611145052779e-06 1.972102471207152e-06 1.383531073630265e-06 -1.291068662667978e-06 -3.467653904968477e-07 5.361314734315917e-07 
5.456091218243649 6.232733284168787e-06 -2.019237619482694e-06 -3.68720705198144e-06 2.22165793221241e-06 1.560111822532757e-06 -1.449794129591249e-06 -3.90706008238527e-07 6.002022383773572e-07 
5.462092418483697 7.04575865077663e-06 -2.278255939362343e-06 -4.162321676212155e-06 2.500655477511863e-06 1.757742080996295e-06 -1.626603395020242e-06 -4.398347445933591e-07 6.713212806747163e-07 
5.468093618723745 7.958335656719662e-06 -2.568360825723603e-06 -4.694773288857833e-06 2.812297781323916e-06 1.978741299394151e-06 -1.823379788359915e-06 -4.947158212600421e-07 7.501902901154364e-07 
5.474094818963793 8.981810688786942e-06 -2.893009384904156e-06 -5.290982678103002e-06 3.160103617009305e-06 2.225661715404292e-06 -2.04218224264078e-06 -5.55969029720411e-07 8.375724756690445e-07 
5.480096019203841 1.012872012658045e-05 -3.256010157165881e-06 -5.958029302229397e-06 3.547935455068512e-06 2.501309153713338e-06 -2.285259446071745e-06 -6.242745547766985e-07 9.342970815394417e-07 
5.486097219443889 1.141290328827331e-05 -3.661555107157203e-06 -6.703712010057706e-06 3.98002909668398e-06 2.808765415557804e-06 -2.555064910583518e-06 -7.003781488428994e-07 1.041264148865663e-06 
5.492098419683937 1.284962482441867e-05 -4.114254132539176e-06 -7.536614634312632e-06 4.461025456770317e-06 3.151412353446707e-06 -2.854272995753682e-06 -7.850966758586605e-07 1.159449528448669e-06 
5.498099619923985 1.445570722345347e-05 -4.619172250365139e-06 -8.466176777757615e-06 4.996004613556244e-06 3.532957729727306e-06 -3.185795926166101e-06 -8.793240440881954e-07 1.28991014921232e-06 
5.504100820164033 1.624967412744487e-05 -5.181869627367756e-06 -9.502770126415416e-06 5.590522244545077e-06 3.95746296086654e-06 -3.552801839693196e-06 -9.840375474060091e-07 1.433789546342184e-06 
5.510102020404081 1.825190519234163e-05 -5.808444626819353e-06 -1.065778063873676e-05 6.250648571247896e-06 4.429372852397999e-06 -3.958733903381372e-06 -1.10030463494834e-06 1.592323652186562e-06 
5.516103220644129 2.048480326344317e-05 -6.50558005105504e-06 -1.194369697414181e-05 6.983009937315089e-06 4.953547432399807e-06 -4.407330532548702e-06 -1.229290129216365e-06 1.766846852046718e-06 
5.522104420884177 2.297297467389824e-05 -7.280592765043742e-06 -1.337420553887328e-05 7.794833146565308e-06 5.535295994092452e-06 -4.902646747351418e-06 -1.372263912846347e-06 1.958798305924456e-06 
5.528105621124225 2.57434235116971e-05 -8.141486892516739e-06 -1.496429254149343e-05 8.693992688882087e-06 6.180413460645018e-06 -5.449076699422818e-06 -1.530609104304681e-06 2.169728536132184e-06 
5.534106821364273 2.882576073871663e-05 -9.097010782070703e-06 -1.673035346455503e-05 9.68906098297165e-06 6.895219187520833e-06 -6.051377399216728e-06 -1.705830742713511e-06 2.401306279401076e-06 
5.540108021604321 3.22524290837969e-05 -1.015671794630419e-05 -1.869031037289322e-05 1.078936176550234e-05 7.68659831964266e-06 -6.714693672378975e-06 -1.899565001856536e-06 2.65532560074511e-06 
5.546109221844369 3.605894467043708e-05 -1.133103218236973e-05 -2.086373749253429e-05 1.200502675612881e-05 8.562045822277717e-06 -7.444584370807237e-06 -2.113588953145431e-06 2.933713264851296e-06 
5.552110422084417 4.028415637835431e-05 -1.263131708727413e-05 -2.327199550730099e-05 1.334705572729106e-05 9.529713305794317e-06 -8.247049861024441e-06 -2.349830896936077e-06 3.238536359168761e-06 
5.558111622324465 4.497052397669247e-05 -1.40699501857779e-05 -2.593837503271402e-05 1.482738010641819e-05 1.059845876528619e-05 -9.12856080906757e-06 -2.610381281060983e-06 3.572010161161565e-06 
5.564112822564513 5.016441610492785e-05 -1.566040189277023e-05 -2.888824973863651e-05 1.645893023620709e-05 1.177789935645534e-05 -1.009608827726702e-05 -2.897504224780428e-06 3.936506240372826e-06 
5.570114022804561 5.591642921530931e-05 -1.741731953546374e-05 -3.214923960316837e-05 1.825570641593339e-05 1.30784673290484e-05 -1.11571351440464e-05 -3.213649665540851e-06 4.334560784022872e-06 
5.576115223044609 6.228172862779912e-05 -1.935661666359759e-05 -3.575138479045534e-05 2.023285384323157e-05 1.45114692385099e-05 -1.231976885319736e-05 -3.561466144955087e-06 4.768883132833552e-06 
5.582116423284657 6.932041288472619e-05 -2.149556787798648e-05 -3.972733065420387e-05 2.240674157140197e-05 1.608914855530729e-05 -1.359265549396585e-05 -3.943814249276317e-06 5.242364511638434e-06 
5.588117623524705 7.709790262751277e-05 -2.385290940913798e-05 -4.411252437665996e-05 2.479504559200505e-05 1.782475178954857e-05 -1.498509520771612e-05 -4.363780718316885e-06 5.758086937108264e-06 
5.594118823764753 8.568535525163614e-05 -2.644894567820139e-05 -4.894542375948252e-05 2.741683614624139e-05 1.973259824601087e-05 -1.650705891090889e-05 -4.824693235255709e-06 6.319332282597969e-06 
5.600120024004801 9.51601066282006e-05 -2.930566207213926e-05 -5.426771868817885e-05 3.029266936133135e-05 2.182815352148261e-05 -1.81692263176347e-05 -5.330135908075309e-06 6.929591477712149e-06 
